Vector1,2.9934640522875817,3.065359477124183,2.9640522875816995,2.9444444444444446,3.0098039215686274,3.0392156862745097,3.1241830065359477,3.0098039215686274,2.9052287581699345,2.8986928104575163,3.0294117647058822,3.104575163398693,3.1143790849673203,3.104575163398693,2.9901960784313726,2.934640522875817,2.9934640522875817,2.9901960784313726,2.9084967320261437,3.0751633986928106,3.1470588235294117,3.0,3.0065359477124183,3.084967320261438,3.0751633986928106,2.9640522875816995,2.950980392156863,3.052287581699346,3.0947712418300655,3.104575163398693,3.176470588235294,3.189542483660131,3.1241830065359477,3.1405228758169934,3.133986928104575,3.19281045751634,3.2254901960784315,3.2254901960784315,3.2026143790849675,3.133986928104575,3.2026143790849675,3.183006535947712,3.1241830065359477,3.081699346405229,3.111111111111111,3.0980392156862746,3.127450980392157,3.104575163398693,3.0620915032679736,3.0620915032679736,3.019607843137255,2.9215686274509802,2.957516339869281,2.977124183006536,3.052287581699346,3.0915032679738563,3.0098039215686274,2.9248366013071894,2.9084967320261437,2.84640522875817,2.816993464052288,2.892156862745098,2.973856209150327,3.111111111111111,3.3006535947712417,3.607843137254902,3.9640522875816995,4.264705882352941,4.23202614379085,3.973856209150327,3.633986928104575,3.34640522875817,3.1405228758169934,3.150326797385621,3.15359477124183,3.0915032679738563,3.0620915032679736,3.003267973856209,2.9444444444444446,2.996732026143791,3.0065359477124183,2.9640522875816995,2.977124183006536,2.9934640522875817,2.973856209150327,2.950980392156863,2.9215686274509802,2.977124183006536,3.0588235294117645,3.107843137254902,3.1470588235294117,3.0686274509803924,3.026143790849673,3.0392156862745097,2.9836601307189543,2.980392156862745,3.0294117647058822,3.0392156862745097,3.0294117647058822,3.019607843137255,2.9901960784313726,2.9934640522875817,3.0392156862745097,3.045751633986928,3.0392156862745097,3.0130718954248366,2.9934640522875817,3.0,3.065359477124183,3.0718954248366015,3.049019607843137,3.0326797385620914,3.049019607843137,3.084967320261438,3.111111111111111,3.1437908496732025,3.1666666666666665,3.1666666666666665,3.215686274509804,3.2287581699346406,3.1862745098039214,3.2026143790849675,3.2483660130718954,3.1862745098039214,3.179738562091503,3.281045751633987,3.281045751633987,3.2058823529411766,3.19281045751634,3.2320261437908497,3.2777777777777777,3.258169934640523,3.189542483660131,3.212418300653595,3.179738562091503,3.133986928104575,3.1241830065359477,3.0620915032679736,3.042483660130719,3.088235294117647,3.084967320261438,3.084967320261438,3.065359477124183,3.065359477124183,3.1209150326797386,3.1176470588235294,3.065359477124183,3.0392156862745097,3.0980392156862746,3.104575163398693,3.052287581699346,3.0392156862745097,3.052287581699346,3.104575163398693,3.1176470588235294,3.0294117647058822,2.9901960784313726,2.9379084967320264,2.9052287581699345,3.049019607843137,3.107843137254902,3.1241830065359477,3.130718954248366,3.042483660130719,3.042483660130719,3.0359477124183005,2.980392156862745,2.977124183006536,2.9673202614379086,2.9673202614379086,3.0065359477124183,3.0,2.9836601307189543,3.0392156862745097,3.0915032679738563,3.0163398692810457,2.947712418300654,3.0718954248366015,3.235294117647059,3.196078431372549,3.0359477124183005,3.019607843137255,3.0784313725490198,3.156862745098039,3.0784313725490198,3.065359477124183,3.150326797385621,3.1372549019607843,3.1143790849673203,3.1241830065359477,3.1209150326797386,3.1405228758169934,3.218954248366013,3.238562091503268,3.156862745098039,3.235294117647059,3.2254901960784315,3.1470588235294117,3.049019607843137,3.0392156862745097,2.996732026143791,2.9673202614379086,3.026143790849673,3.0294117647058822,3.0326797385620914,3.104575163398693,3.0751633986928106,2.9836601307189543,2.9607843137254903,2.9411764705882355,2.9281045751633985,2.950980392156863,2.957516339869281,2.9379084967320264,2.869281045751634,2.7679738562091503,2.738562091503268,2.8300653594771243,2.980392156862745,3.19281045751634,3.4607843137254903,3.7222222222222223,4.0816993464052285,4.218954248366013,3.8986928104575163,3.519607843137255,3.3300653594771243,3.196078431372549,3.1176470588235294,3.130718954248366,3.1633986928104574,3.1013071895424837,3.0163398692810457,2.934640522875817,3.0098039215686274,3.045751633986928,3.0392156862745097,2.9444444444444446,2.9248366013071894,2.9248366013071894,2.8823529411764706,2.869281045751634,2.9215686274509802,2.957516339869281,3.0,3.088235294117647,3.215686274509804,3.065359477124183,2.895424836601307,2.911764705882353,2.9444444444444446,2.973856209150327,3.052287581699346,3.045751633986928,2.911764705882353,2.9281045751633985,3.0065359477124183,3.0065359477124183,2.9836601307189543,3.0065359477124183,2.996732026143791,3.0392156862745097,3.049019607843137,2.973856209150327,2.9411764705882355,3.045751633986928,3.1372549019607843,3.0294117647058822,2.9705882352941178,3.1143790849673203,3.1470588235294117,3.081699346405229,3.107843137254902,3.1862745098039214,3.2254901960784315,3.3006535947712417,3.19281045751634,3.173202614379085,3.1470588235294117,3.176470588235294,3.1372549019607843,3.183006535947712,3.258169934640523,3.2254901960784315,3.212418300653595,3.235294117647059,3.2026143790849675,3.2287581699346406,3.264705882352941,3.2287581699346406,3.1209150326797386,3.0620915032679736,3.0751633986928106,3.133986928104575,3.173202614379085,3.1437908496732025,3.0326797385620914,2.9901960784313726,3.0915032679738563,3.0718954248366015,2.9869281045751634,3.0686274509803924,3.0392156862745097,3.0555555555555554,3.0751633986928106,3.0065359477124183,3.0620915032679736,3.0751633986928106,3.019607843137255,3.0065359477124183,3.0620915032679736,3.022875816993464,2.973856209150327,2.9607843137254903,3.0098039215686274,3.026143790849673,3.1470588235294117,3.150326797385621,3.0098039215686274,2.9673202614379086,3.042483660130719,3.1666666666666665,3.0326797385620914,2.947712418300654,3.022875816993464,2.9901960784313726,2.957516339869281,3.0065359477124183,3.0098039215686274,3.0751633986928106,3.238562091503268,3.0784313725490198,3.003267973856209,3.0163398692810457,3.0098039215686274,3.0326797385620914,3.0620915032679736,3.111111111111111,3.0686274509803924,3.111111111111111,3.107843137254902,3.150326797385621,3.1993464052287583,3.127450980392157,3.1209150326797386,3.215686274509804,3.212418300653595,3.2254901960784315,3.156862745098039,3.189542483660131,3.2908496732026142,3.179738562091503,3.1601307189542482,3.2254901960784315,3.241830065359477,3.107843137254902,3.065359477124183,3.042483660130719,2.973856209150327,2.9934640522875817,3.0359477124183005,3.0326797385620914,3.049019607843137,3.045751633986928,3.045751633986928,3.019607843137255,3.0163398692810457,3.081699346405229,3.0359477124183005,2.934640522875817,3.026143790849673,2.918300653594771,2.712418300653595,2.7679738562091503,2.869281045751634,3.0718954248366015,3.4411764705882355,3.738562091503268,4.0130718954248366,4.2026143790849675,4.07516339869281,3.810457516339869,3.503267973856209,3.326797385620915,3.2712418300653594,3.1241830065359477,3.0718954248366015,3.127450980392157,3.1372549019607843,3.052287581699346,2.9836601307189543,3.003267973856209,3.0130718954248366,2.9607843137254903,2.9248366013071894,2.9248366013071894,2.888888888888889,2.8823529411764706,3.0294117647058822,3.111111111111111,2.9934640522875817,2.872549019607843,2.888888888888889,2.9411764705882355,3.0751633986928106,2.947712418300654,2.9869281045751634,3.019607843137255,3.026143790849673,2.9836601307189543,2.918300653594771,2.9411764705882355,2.954248366013072,2.8627450980392157,2.957516339869281,3.0588235294117645,3.081699346405229,2.977124183006536,2.9444444444444446,3.0718954248366015,3.0620915032679736,2.9901960784313726,3.0163398692810457,3.0359477124183005,3.042483660130719,3.0686274509803924,3.0555555555555554,3.0359477124183005,3.081699346405229,3.179738562091503,3.241830065359477,3.2320261437908497,3.2287581699346406,3.1862745098039214,3.2941176470588234,3.3758169934640523,3.218954248366013,3.2091503267973858,3.1241830065359477,3.127450980392157,3.107843137254902,3.1405228758169934,3.2483660130718954,3.2026143790849675,3.156862745098039,3.1666666666666665,3.15359477124183,3.107843137254902,3.0163398692810457,3.0588235294117645,3.1209150326797386,3.052287581699346,2.9673202614379086,3.0947712418300655,3.189542483660131,3.183006535947712,3.127450980392157,3.0555555555555554,3.065359477124183,3.042483660130719,2.9836601307189543,3.0065359477124183,3.0163398692810457,3.0,3.0359477124183005,3.0163398692810457,2.9901960784313726,3.0588235294117645,3.045751633986928,3.042483660130719,3.0065359477124183,3.0,3.003267973856209,3.022875816993464,2.954248366013072,2.888888888888889,2.9379084967320264,2.9705882352941178,3.022875816993464,3.0065359477124183,3.0294117647058822,3.026143790849673,3.0130718954248366,3.019607843137255,3.0686274509803924,3.019607843137255,2.954248366013072,2.973856209150327,3.0326797385620914,3.052287581699346,3.107843137254902,3.1633986928104574,3.022875816993464,2.954248366013072,2.977124183006536,2.9673202614379086,2.950980392156863,3.0588235294117645,3.0915032679738563,3.0359477124183005,2.9934640522875817,3.0686274509803924,3.1862745098039214,3.235294117647059,3.1993464052287583,3.238562091503268,3.2549019607843137,3.218954248366013,3.2287581699346406,3.1862745098039214,3.127450980392157,3.104575163398693,3.0163398692810457,2.934640522875817,3.0588235294117645,3.1176470588235294,3.0294117647058822,2.9444444444444446,3.003267973856209,3.0555555555555554,2.8823529411764706,2.915032679738562,3.0,3.003267973856209,2.9607843137254903,2.9215686274509802,2.918300653594771,2.8366013071895426,2.8627450980392157,2.9869281045751634,3.065359477124183,3.212418300653595,3.4313725490196076,3.7320261437908497,4.022875816993464,4.091503267973856,3.849673202614379,3.581699346405229,3.3594771241830066,3.2549019607843137,3.156862745098039,3.1405228758169934,3.1013071895424837,2.9869281045751634,3.0555555555555554,3.107843137254902,3.049019607843137,2.977124183006536,2.947712418300654,2.996732026143791,2.9869281045751634,2.9379084967320264,2.9248366013071894,2.950980392156863,2.9934640522875817,3.026143790849673,3.0130718954248366,2.9411764705882355,2.934640522875817,2.977124183006536,3.0098039215686274,2.934640522875817,2.9934640522875817,3.022875816993464,3.0,3.026143790849673,3.042483660130719,2.9640522875816995,3.0359477124183005,3.065359477124183,2.9869281045751634,2.9607843137254903,2.9901960784313726,3.0098039215686274,2.996732026143791,3.1013071895424837,3.0915032679738563,3.045751633986928,3.0686274509803924,3.019607843137255,3.052287581699346,3.1013071895424837,3.1470588235294117,3.1143790849673203,3.127450980392157,3.1372549019607843,3.1143790849673203,3.1633986928104574,3.1437908496732025,3.173202614379085,3.1993464052287583,3.2254901960784315,3.218954248366013,3.2222222222222223,3.2254901960784315,3.189542483660131,3.2026143790849675,3.1862745098039214,3.1666666666666665,3.1862745098039214,3.173202614379085,3.1601307189542482,3.1372549019607843,3.15359477124183,3.1405228758169934,3.104575163398693,3.0620915032679736,3.052287581699346,3.088235294117647,3.049019607843137,3.022875816993464,3.0392156862745097,3.0392156862745097,3.0588235294117645,3.0326797385620914,3.052287581699346,3.045751633986928,3.0359477124183005,3.0718954248366015,3.084967320261438,3.081699346405229,3.088235294117647,3.0392156862745097,2.996732026143791,3.0294117647058822,3.0098039215686274,2.947712418300654,2.911764705882353,2.84640522875817,2.816993464052288,2.826797385620915,2.8856209150326797,3.026143790849673,3.0065359477124183,2.8856209150326797,2.810457516339869,2.758169934640523,2.69281045751634,2.712418300653595,2.7679738562091503,2.7712418300653594,2.7679738562091503,2.8137254901960786,2.8529411764705883,2.892156862745098,2.8856209150326797,2.9411764705882355,2.996732026143791,2.9836601307189543,2.996732026143791,3.104575163398693,3.1241830065359477,3.1176470588235294,3.1372549019607843,3.150326797385621,3.1405228758169934,3.156862745098039,3.1372549019607843,3.0947712418300655,3.0784313725490198,3.052287581699346,3.104575163398693,3.176470588235294,3.1862745098039214,3.1993464052287583,3.173202614379085,3.189542483660131,3.189542483660131,3.176470588235294,3.2450980392156863,3.2745098039215685,3.218954248366013,3.2091503267973858,3.264705882352941,3.3333333333333335,3.3594771241830066,3.3366013071895426,3.3398692810457518,3.4248366013071894,3.4934640522875817,3.4444444444444446,3.4869281045751634,3.519607843137255,3.4869281045751634,3.5065359477124183,3.473856209150327,3.4607843137254903,3.450980392156863,3.3823529411764706,3.392156862745098,3.3823529411764706,3.3758169934640523,3.3333333333333335,3.326797385620915,3.3627450980392157,3.3137254901960786,3.2450980392156863,3.2254901960784315,3.2058823529411766,3.1372549019607843,3.081699346405229,3.0947712418300655,3.0947712418300655,3.026143790849673,2.9901960784313726,3.0294117647058822,3.019607843137255,3.0130718954248366,3.0,2.996732026143791,3.022875816993464,2.9705882352941178,2.973856209150327,2.9607843137254903,2.934640522875817,3.0,3.049019607843137,3.0065359477124183,2.973856209150327,2.9248366013071894,2.8856209150326797,2.8790849673202614,2.9444444444444446,2.9640522875816995,2.9705882352941178,2.954248366013072,2.9379084967320264,2.9313725490196076,2.950980392156863,2.977124183006536,2.973856209150327,2.950980392156863,2.947712418300654,2.947712418300654,2.9019607843137254,2.8856209150326797,2.9215686274509802,3.003267973856209,2.9901960784313726,2.947712418300654,2.934640522875817,2.9215686274509802,2.9444444444444446,2.947712418300654,2.9215686274509802,2.9019607843137254,2.8627450980392157,2.781045751633987,2.7908496732026142,2.954248366013072,3.049019607843137,3.052287581699346,3.0,2.9281045751633985,2.8594771241830066,2.7745098039215685,2.8137254901960786,2.9379084967320264,2.957516339869281,2.996732026143791,3.0359477124183005,2.973856209150327,2.9248366013071894,2.9084967320261437,2.957516339869281,2.9379084967320264,2.9281045751633985,3.0,3.019607843137255,2.9705882352941178,2.895424836601307,2.954248366013072,2.9640522875816995,2.9379084967320264,2.934640522875817,2.9019607843137254,2.888888888888889,2.9019607843137254,2.9673202614379086,3.003267973856209,3.026143790849673,2.947712418300654,2.8790849673202614,2.866013071895425,2.9607843137254903,3.026143790849673,3.042483660130719,2.9607843137254903,2.9379084967320264,2.918300653594771,2.915032679738562,2.9869281045751634,3.0294117647058822,2.9934640522875817,2.950980392156863,2.895424836601307,2.888888888888889,2.957516339869281,2.980392156862745,3.0098039215686274,3.0326797385620914,3.0163398692810457,2.9705882352941178,2.911764705882353,2.9215686274509802,2.977124183006536,3.0065359477124183,3.003267973856209,2.9934640522875817,3.0,3.0163398692810457,3.0065359477124183,3.0098039215686274,3.0326797385620914,3.081699346405229,3.0915032679738563,3.0718954248366015,3.088235294117647,3.107843137254902,3.0947712418300655,3.1372549019607843,3.1372549019607843,3.127450980392157,3.107843137254902,3.133986928104575,3.1699346405228757,3.1470588235294117,3.104575163398693,3.0686274509803924,3.019607843137255,2.980392156862745,2.9411764705882355,2.9640522875816995,2.9640522875816995,3.003267973856209,3.052287581699346,2.9901960784313726,2.9607843137254903,2.950980392156863,2.934640522875817,2.866013071895425,2.8366013071895426,2.7908496732026142,2.7777777777777777,2.8137254901960786,2.8594771241830066,2.957516339869281,3.189542483660131,3.4901960784313726,3.7908496732026142,4.084967320261438,4.120915032679738,3.8823529411764706,3.549019607843137,3.2973856209150325,3.130718954248366,3.127450980392157,3.1699346405228757,3.127450980392157,3.081699346405229,2.9934640522875817,2.957516339869281,2.977124183006536,2.977124183006536,2.9019607843137254,2.895424836601307,2.888888888888889,2.9411764705882355,2.954248366013072,2.9281045751633985,2.918300653594771,2.915032679738562,2.915032679738562,2.957516339869281,2.9901960784313726,2.9411764705882355,2.9052287581699345,2.9411764705882355,2.9607843137254903,2.9934640522875817,2.947712418300654,2.9607843137254903,2.9673202614379086,2.957516339869281,2.934640522875817,2.9836601307189543,2.947712418300654,2.9248366013071894,2.957516339869281,3.026143790849673,3.0588235294117645,3.0130718954248366,2.977124183006536,2.9705882352941178,3.022875816993464,3.0947712418300655,2.9934640522875817,2.947712418300654,3.0294117647058822,3.0065359477124183,3.003267973856209,3.042483660130719,3.045751633986928,3.0294117647058822,3.0555555555555554,3.0588235294117645,3.1241830065359477,3.2287581699346406,3.2287581699346406,3.2222222222222223,3.1666666666666665,3.104575163398693,3.107843137254902,3.111111111111111,3.0980392156862746,3.1143790849673203,3.0784313725490198,3.111111111111111,3.150326797385621,3.130718954248366,3.104575163398693,3.1176470588235294,3.196078431372549,3.127450980392157,3.003267973856209,2.9313725490196076,2.9411764705882355,3.0130718954248366,2.915032679738562,2.954248366013072,3.0163398692810457,3.0326797385620914,3.0065359477124183,2.980392156862745,2.9901960784313726,2.954248366013072,3.0065359477124183,3.0326797385620914,2.9869281045751634,3.0392156862745097,2.980392156862745,2.911764705882353,2.9379084967320264,2.9444444444444446,2.977124183006536,3.0130718954248366,2.9673202614379086,2.954248366013072,2.915032679738562,2.9215686274509802,2.9705882352941178,2.8986928104575163,2.911764705882353,2.915032679738562,2.9411764705882355,2.950980392156863,2.950980392156863,2.947712418300654,2.9673202614379086,3.0294117647058822,2.9052287581699345,2.8529411764705883,2.8856209150326797,2.9607843137254903,3.0065359477124183,2.9869281045751634,2.9934640522875817,2.980392156862745,3.003267973856209,3.0163398692810457,3.003267973856209,3.026143790849673,3.0392156862745097,3.0326797385620914,3.081699346405229,3.2026143790849675,3.1372549019607843,3.065359477124183,3.1176470588235294,3.1437908496732025,3.111111111111111,3.0294117647058822,2.9901960784313726,3.0098039215686274,2.950980392156863,2.915032679738562,2.954248366013072,2.934640522875817,2.9248366013071894,2.934640522875817,2.8627450980392157,2.888888888888889,2.9215686274509802,2.9705882352941178,2.9379084967320264,2.849673202614379,2.9084967320261437,2.9673202614379086,2.8529411764705883,2.7973856209150325,2.7679738562091503,2.7287581699346406,2.843137254901961,2.9411764705882355,3.1633986928104574,3.545751633986928,3.843137254901961,3.9673202614379086,3.9084967320261437,3.6993464052287583,3.395424836601307,3.2058823529411766,3.0751633986928106,2.9869281045751634,3.003267973856209,3.0392156862745097,2.9673202614379086,2.9313725490196076,2.9444444444444446,2.9281045751633985,2.9444444444444446,2.8758169934640523,2.8562091503267975,2.8986928104575163,2.915032679738562,2.915032679738562,2.9052287581699345,2.888888888888889,2.911764705882353,2.895424836601307,2.9052287581699345,2.911764705882353,2.869281045751634,2.8594771241830066,2.849673202614379,2.866013071895425,2.934640522875817,2.957516339869281,2.8790849673202614,2.8627450980392157,2.8398692810457518,2.8986928104575163,2.9869281045751634,2.9836601307189543,2.9379084967320264,2.9248366013071894,2.957516339869281,3.0326797385620914,2.9444444444444446,2.9215686274509802,2.980392156862745,2.957516339869281,2.9607843137254903,2.9869281045751634,3.052287581699346,3.042483660130719,2.9836601307189543,2.980392156862745,2.996732026143791,3.0326797385620914,3.0130718954248366,3.022875816993464,3.1437908496732025,3.179738562091503,3.133986928104575,3.111111111111111,3.1633986928104574,3.2026143790849675,3.1176470588235294,3.0751633986928106,3.1176470588235294,3.133986928104575,3.107843137254902,3.088235294117647,2.980392156862745,3.003267973856209,3.0098039215686274,2.996732026143791,2.9444444444444446,2.892156862745098,2.980392156862745,2.9673202614379086,2.954248366013072,2.954248366013072,2.980392156862745,2.9379084967320264,2.9019607843137254,2.915032679738562,2.915032679738562,2.9705882352941178,2.9640522875816995,2.918300653594771,2.911764705882353,2.947712418300654,2.9673202614379086,2.973856209150327,2.918300653594771,2.895424836601307,2.872549019607843,2.911764705882353,2.9640522875816995,2.9281045751633985,2.895424836601307,2.8823529411764706,2.8823529411764706,2.8823529411764706,2.9215686274509802,2.9836601307189543,2.9281045751633985,2.9052287581699345,2.9411764705882355,2.892156862745098,2.849673202614379,2.8137254901960786,2.9379084967320264,2.9444444444444446,2.888888888888889,2.9052287581699345,2.911764705882353,2.8823529411764706,2.9411764705882355,2.977124183006536,2.9934640522875817,3.0,3.003267973856209,2.996732026143791,3.003267973856209,2.947712418300654,2.895424836601307,2.977124183006536,2.9607843137254903,2.9673202614379086,3.022875816993464,3.111111111111111,3.130718954248366,3.052287581699346,3.026143790849673,2.973856209150327,3.0163398692810457,2.934640522875817,2.8627450980392157,2.8856209150326797,2.915032679738562,2.911764705882353,2.911764705882353,2.84640522875817,2.80718954248366,2.866013071895425,2.9019607843137254,2.872549019607843,2.8790849673202614,2.8398692810457518,2.8790849673202614,2.911764705882353,2.8790849673202614,2.8137254901960786,2.8366013071895426,2.7941176470588234,2.633986928104575,2.676470588235294,2.843137254901961,3.084967320261438,3.310457516339869,3.545751633986928,3.843137254901961,3.895424836601307,3.712418300653595,3.450980392156863,3.2026143790849675,3.104575163398693,3.026143790849673,2.957516339869281,2.9673202614379086,2.8856209150326797,2.888888888888889,2.911764705882353,2.8529411764705883,2.8333333333333335,2.8366013071895426,2.8398692810457518,2.918300653594771,2.892156862745098,2.803921568627451,2.7679738562091503,2.8856209150326797,2.9084967320261437,2.869281045751634,2.823529411764706,2.84640522875817,2.8366013071895426,2.826797385620915,2.80718954248366,2.764705882352941,2.823529411764706,2.950980392156863,2.9836601307189543,2.9019607843137254,2.820261437908497,2.823529411764706,2.869281045751634,2.892156862745098,2.8627450980392157,2.810457516339869,2.8137254901960786,2.849673202614379,2.8823529411764706,2.869281045751634,2.9084967320261437,2.9084967320261437,2.895424836601307,2.9281045751633985,2.9248366013071894,2.8594771241830066,2.8627450980392157,2.9215686274509802,2.9607843137254903,3.026143790849673,3.0751633986928106,3.1013071895424837,3.0555555555555554,3.0751633986928106,3.1013071895424837,3.0947712418300655,3.0718954248366015,3.0718954248366015,3.084967320261438,3.088235294117647,3.104575163398693,3.0588235294117645,3.0098039215686274,3.0130718954248366,3.088235294117647,3.019607843137255,3.019607843137255,3.0163398692810457,3.0,2.980392156862745,2.977124183006536,2.9444444444444446,2.9084967320261437,2.9052287581699345,2.895424836601307,2.888888888888889,2.9215686274509802,2.947712418300654,2.895424836601307,2.9248366013071894,2.8986928104575163,2.8823529411764706,2.934640522875817,2.980392156862745,2.9411764705882355,3.0098039215686274,3.022875816993464,2.872549019607843,2.843137254901961,2.8562091503267975,2.9411764705882355,2.9084967320261437,2.8627450980392157,2.8627450980392157,2.84640522875817,2.8562091503267975,2.872549019607843,2.9281045751633985,2.869281045751634,2.84640522875817,2.8627450980392157,2.84640522875817,2.8627450980392157,2.895424836601307,2.895424836601307,2.8758169934640523,2.8627450980392157,2.8529411764705883,2.872549019607843,2.8790849673202614,2.8986928104575163,2.954248366013072,2.9934640522875817,2.977124183006536,2.950980392156863,2.888888888888889,2.8627450980392157,2.918300653594771,3.042483660130719,3.1176470588235294,3.0,2.915032679738562,3.042483660130719,3.088235294117647,3.0588235294117645,3.0620915032679736,3.042483660130719,3.0392156862745097,3.065359477124183,3.0359477124183005,3.0130718954248366,2.954248366013072,2.9052287581699345,2.9215686274509802,2.9836601307189543,2.9673202614379086,2.918300653594771,2.9313725490196076,2.9281045751633985,2.866013071895425,2.84640522875817,2.843137254901961,2.820261437908497,2.826797385620915,2.8300653594771243,2.8562091503267975,2.843137254901961,2.803921568627451,2.787581699346405,2.738562091503268,2.7549019607843137,2.973856209150327,3.2908496732026142,3.542483660130719,3.816993464052288,4.062091503267974,3.950980392156863,3.6372549019607843,3.3758169934640523,3.1699346405228757,3.088235294117647,3.1013071895424837,3.0392156862745097,3.0130718954248366,3.003267973856209,2.9281045751633985,2.84640522875817,2.781045751633987,2.826797385620915,2.8986928104575163,2.9379084967320264,2.8986928104575163,2.826797385620915,2.80718954248366,2.816993464052288,2.8333333333333335,2.872549019607843,2.866013071895425,2.8790849673202614,2.892156862745098,2.8856209150326797,2.9084967320261437,2.9019607843137254,2.8790849673202614,2.84640522875817,2.820261437908497,2.869281045751634,2.9248366013071894,2.9640522875816995,2.9901960784313726,2.973856209150327,2.9444444444444446,2.869281045751634,2.9084967320261437,2.947712418300654,2.9673202614379086,2.977124183006536,2.9215686274509802,2.918300653594771,2.9281045751633985,2.973856209150327,3.042483660130719,3.0,3.042483660130719,3.065359477124183,2.9607843137254903,2.9673202614379086,3.0163398692810457,3.107843137254902,3.133986928104575,3.0980392156862746,3.1209150326797386,3.133986928104575,3.183006535947712,3.176470588235294,3.130718954248366,3.1437908496732025,3.133986928104575,3.0980392156862746,3.1013071895424837,3.0784313725490198,3.065359477124183,3.0915032679738563,3.049019607843137,2.911764705882353,2.918300653594771,2.9705882352941178,2.977124183006536,2.9444444444444446,2.9019607843137254,2.9248366013071894,2.9607843137254903,2.9215686274509802,2.9379084967320264,2.8823529411764706,2.8823529411764706,2.915032679738562,2.9084967320261437,2.8823529411764706,2.866013071895425,2.892156862745098,2.8856209150326797,2.849673202614379,2.820261437908497,2.820261437908497,2.895424836601307,2.911764705882353,2.9052287581699345,2.869281045751634,2.8398692810457518,2.9019607843137254,2.8823529411764706,2.823529411764706,2.8333333333333335,2.8594771241830066,2.849673202614379,2.803921568627451,2.7973856209150325,2.8398692810457518,2.8529411764705883,2.849673202614379,2.8333333333333335,2.8562091503267975,2.8627450980392157,2.826797385620915,2.823529411764706,2.8594771241830066,2.9019607843137254,2.8856209150326797,2.9019607843137254,2.9052287581699345,2.8594771241830066,2.911764705882353,2.9640522875816995,2.9705882352941178,2.934640522875817,2.9640522875816995,2.9411764705882355,2.973856209150327,2.9836601307189543,3.022875816993464,3.0751633986928106,3.084967320261438,3.0588235294117645,3.049019607843137,3.0359477124183005,3.0294117647058822,3.026143790849673,3.0098039215686274,2.9640522875816995,2.918300653594771,2.947712418300654,2.9215686274509802,2.915032679738562,2.872549019607843,2.8594771241830066,2.9019607843137254,2.8856209150326797,2.8627450980392157,2.849673202614379,2.8758169934640523,2.9019607843137254,2.888888888888889,2.8562091503267975,2.787581699346405,2.741830065359477,2.712418300653595,2.69281045751634,2.784313725490196,2.950980392156863,3.2320261437908497,3.552287581699346,3.8398692810457518,4.0359477124183005,3.869281045751634,3.633986928104575,3.388888888888889,3.2091503267973858,3.107843137254902,3.0,2.980392156862745,2.9836601307189543,2.934640522875817,2.911764705882353,2.9052287581699345,2.8627450980392157,2.8137254901960786,2.843137254901961,2.9084967320261437,2.888888888888889,2.8758169934640523,2.888888888888889,2.8823529411764706,2.892156862745098,2.872549019607843,2.843137254901961,2.869281045751634,2.8594771241830066,2.8006535947712417,2.866013071895425,2.911764705882353,2.895424836601307,2.84640522875817,2.8986928104575163,2.9281045751633985,2.9444444444444446,2.977124183006536,2.9673202614379086,2.954248366013072,2.9869281045751634,3.019607843137255,2.9640522875816995,2.8562091503267975,2.8594771241830066,2.9379084967320264,2.980392156862745,3.0326797385620914,3.0098039215686274,2.9901960784313726,3.0,2.954248366013072,2.9607843137254903,3.003267973856209,3.0620915032679736,3.0718954248366015,3.042483660130719,3.0980392156862746,3.111111111111111,3.111111111111111,3.1209150326797386,3.133986928104575,3.150326797385621,3.150326797385621,3.1601307189542482,3.1666666666666665,3.1633986928104574,3.156862745098039,3.1176470588235294,3.0751633986928106,3.052287581699346,3.052287581699346,3.026143790849673,3.019607843137255,2.9869281045751634,2.950980392156863,2.9444444444444446,3.0326797385620914,3.0718954248366015,2.9313725490196076,2.950980392156863,3.0294117647058822,2.957516339869281,2.8529411764705883,2.8823529411764706,2.8758169934640523,2.947712418300654,2.9705882352941178,3.0555555555555554,3.022875816993464,2.977124183006536,2.9673202614379086,2.918300653594771,2.9215686274509802,2.957516339869281,2.9444444444444446,2.934640522875817,2.980392156862745,2.947712418300654,2.8529411764705883,2.866013071895425,2.9379084967320264,2.957516339869281,2.9281045751633985,2.8986928104575163,2.9215686274509802,2.892156862745098,2.895424836601307,2.869281045751634,2.8986928104575163,2.947712418300654,2.9705882352941178,2.950980392156863,2.915032679738562,2.892156862745098,2.8986928104575163,2.957516339869281,2.957516339869281,2.977124183006536,2.9313725490196076,2.8986928104575163,2.9411764705882355,2.957516339869281,2.9444444444444446,2.9673202614379086,2.9705882352941178,2.977124183006536,2.996732026143791,3.003267973856209,3.0359477124183005,3.019607843137255,2.957516339869281,3.0,3.026143790849673,3.042483660130719,3.0555555555555554,3.0359477124183005,2.9640522875816995,2.9379084967320264,2.9379084967320264,2.9411764705882355,2.9248366013071894,2.8562091503267975,2.8366013071895426,2.8562091503267975,2.869281045751634,2.8333333333333335,2.8562091503267975,2.8823529411764706,2.8562091503267975,2.8529411764705883,2.8398692810457518,2.8594771241830066,2.7908496732026142,2.696078431372549,2.6862745098039214,2.7777777777777777,2.8823529411764706,2.9869281045751634,3.2516339869281046,3.588235294117647,3.8823529411764706,3.9836601307189543,3.7908496732026142,3.4444444444444446,3.238562091503268,3.081699346405229,2.9836601307189543,2.9607843137254903,2.954248366013072,2.9869281045751634,2.973856209150327,2.8594771241830066,2.826797385620915,2.8366013071895426,2.8006535947712417,2.8333333333333335,2.8823529411764706,2.8986928104575163,2.8856209150326797,2.8758169934640523,2.8594771241830066,2.8594771241830066,2.8529411764705883,2.8366013071895426,2.8594771241830066,2.895424836601307,2.9215686274509802,2.915032679738562,2.8366013071895426,2.8366013071895426,2.849673202614379,2.9019607843137254,2.9379084967320264,2.8758169934640523,2.849673202614379,2.8562091503267975,2.8594771241830066,2.869281045751634,2.9019607843137254,2.9052287581699345,2.888888888888889,2.9084967320261437,2.9379084967320264,2.973856209150327,2.954248366013072,2.9215686274509802,2.9248366013071894,2.9379084967320264,2.9444444444444446,2.9640522875816995,2.954248366013072,3.0065359477124183,3.0326797385620914,3.022875816993464,3.0065359477124183,3.0130718954248366,3.026143790849673,3.0588235294117645,3.088235294117647,3.052287581699346,3.049019607843137,3.084967320261438,3.127450980392157,3.150326797385621,3.052287581699346,3.0098039215686274,3.0130718954248366,2.9705882352941178,2.9411764705882355,2.9444444444444446,2.918300653594771,2.9248366013071894,2.9019607843137254,2.892156862745098,2.8627450980392157,2.8398692810457518,2.8562091503267975,2.9248366013071894,2.9248366013071894,2.9281045751633985,2.9052287581699345,2.888888888888889,2.8333333333333335,2.911764705882353,2.9281045751633985,2.892156862745098,2.895424836601307,2.918300653594771,2.8562091503267975,2.8137254901960786,2.820261437908497,2.866013071895425,2.8790849673202614,2.9084967320261437,2.895424836601307,2.866013071895425,2.866013071895425,2.84640522875817,2.8562091503267975,2.7973856209150325,2.8398692810457518,2.8562091503267975,2.872549019607843,2.8627450980392157,2.8823529411764706,2.911764705882353,2.8856209150326797,2.869281045751634,2.888888888888889,2.8790849673202614,2.8627450980392157,2.866013071895425,2.869281045751634,2.866013071895425,2.888888888888889,2.9281045751633985,2.9084967320261437,2.888888888888889,2.8856209150326797,2.915032679738562,2.918300653594771,2.866013071895425,2.872549019607843,2.9313725490196076,2.9705882352941178,2.957516339869281,2.947712418300654,2.9607843137254903,2.9901960784313726,3.0555555555555554,3.0555555555555554,3.022875816993464,3.0326797385620914,3.0588235294117645,3.0555555555555554,2.9836601307189543,2.911764705882353,2.911764705882353,2.9052287581699345,2.8758169934640523,2.8594771241830066,2.8529411764705883,2.8529411764705883,2.8790849673202614,2.8790849673202614,2.8758169934640523,2.8758169934640523,2.9019607843137254,2.9019607843137254,2.872549019607843,2.8594771241830066,2.7973856209150325,2.7450980392156863,2.735294117647059,2.7287581699346406,2.7254901960784315,2.810457516339869,3.026143790849673,3.3333333333333335,3.5980392156862746,3.934640522875817,4.0816993464052285,3.888888888888889,3.5588235294117645,3.284313725490196,3.130718954248366,3.081699346405229,3.104575163398693,3.081699346405229,3.0326797385620914,2.9444444444444446,2.820261437908497,2.866013071895425,2.8562091503267975,2.7973856209150325,2.8006535947712417,2.8790849673202614,2.8627450980392157,2.84640522875817,2.843137254901961,2.8562091503267975,2.849673202614379,2.8758169934640523,2.892156862745098,2.872549019607843,2.8300653594771243,2.84640522875817,2.84640522875817,2.8790849673202614,2.892156862745098,2.8856209150326797,2.8594771241830066,2.869281045751634,2.892156862745098,2.9052287581699345,2.8823529411764706,2.8627450980392157,2.918300653594771,2.9215686274509802,2.9052287581699345,2.911764705882353,2.9019607843137254,2.9215686274509802,2.947712418300654,2.9640522875816995,2.9607843137254903,2.9869281045751634,3.003267973856209,2.918300653594771,2.9248366013071894,2.954248366013072,2.9901960784313726,3.026143790849673,3.0718954248366015,3.081699346405229,3.065359477124183,3.0751633986928106,3.0784313725490198,3.065359477124183,3.1143790849673203,3.1405228758169934,3.1143790849673203,3.084967320261438,3.088235294117647,3.065359477124183,3.042483660130719,3.0555555555555554,3.0294117647058822,3.0294117647058822,3.0392156862745097,2.9705882352941178,2.915032679738562,2.957516339869281,3.0163398692810457,2.954248366013072,2.918300653594771,2.9444444444444446,2.9248366013071894,2.9084967320261437,2.947712418300654,2.888888888888889,2.8006535947712417,2.8398692810457518,2.9411764705882355,2.980392156862745,3.003267973856209,2.957516339869281,2.915032679738562,2.9281045751633985,2.9673202614379086,2.947712418300654,2.9379084967320264,2.9215686274509802,2.8300653594771243,2.84640522875817,2.895424836601307,2.9444444444444446,2.977124183006536,2.9705882352941178,2.9934640522875817,2.950980392156863,2.869281045751634,2.7941176470588234,2.781045751633987,2.7777777777777777,2.761437908496732,2.7941176470588234,2.872549019607843,2.8562091503267975,2.8823529411764706,2.8986928104575163,2.7973856209150325,2.6633986928104574,2.5326797385620914,2.5294117647058822,2.565359477124183,2.6470588235294117,2.6405228758169934,2.6601307189542482,2.683006535947712,2.7745098039215685,2.8529411764705883,2.892156862745098,2.8856209150326797,2.9281045751633985,3.019607843137255,3.0,3.0,3.049019607843137,3.111111111111111,3.084967320261438,2.9901960784313726,3.081699346405229,3.176470588235294,3.0392156862745097,2.9215686274509802,2.918300653594771,2.977124183006536,3.052287581699346,3.0784313725490198,3.0784313725490198,3.065359477124183,3.081699346405229,3.1601307189542482,3.084967320261438,3.0555555555555554,3.127450980392157,3.1666666666666665,3.196078431372549,3.2026143790849675,3.2026143790849675,3.2745098039215685,3.2973856209150325,3.310457516339869,3.310457516339869,3.3366013071895426,3.3300653594771243,3.447712418300654,3.5294117647058822,3.4411764705882355,3.4411764705882355,3.477124183006536,3.4640522875816995,3.434640522875817,3.480392156862745,3.496732026143791,3.418300653594771,3.4248366013071894,3.4411764705882355,3.326797385620915,3.2254901960784315,3.238562091503268,3.2320261437908497,3.130718954248366,3.1143790849673203,3.1013071895424837,3.052287581699346,3.052287581699346,3.156862745098039,3.1470588235294117,3.0392156862745097,2.9934640522875817,2.9934640522875817,2.957516339869281,2.950980392156863,2.9836601307189543,3.0294117647058822,2.9673202614379086,2.8398692810457518,2.849673202614379,2.8823529411764706,2.8562091503267975,2.8562091503267975,2.9215686274509802,2.9869281045751634,2.9901960784313726,2.9640522875816995,2.9444444444444446,2.849673202614379,2.826797385620915,2.8300653594771243,2.84640522875817,2.892156862745098,2.9444444444444446,2.9640522875816995,2.9901960784313726,2.9052287581699345,2.869281045751634,2.888888888888889,2.8006535947712417,2.820261437908497,2.9052287581699345,2.8856209150326797,2.8627450980392157,2.888888888888889,2.911764705882353,2.8856209150326797,2.823529411764706,2.7941176470588234,2.8398692810457518,2.8562091503267975,2.823529411764706,2.7908496732026142,2.8137254901960786,2.8627450980392157,2.869281045751634,2.8333333333333335,2.843137254901961,2.8333333333333335,2.892156862745098,2.9084967320261437,2.892156862745098,2.8398692810457518,2.820261437908497,2.8333333333333335,2.84640522875817,2.849673202614379,2.8398692810457518,2.8594771241830066,2.810457516339869,2.781045751633987,2.8333333333333335,2.869281045751634,2.888888888888889,2.843137254901961,2.8006535947712417,2.7712418300653594,2.735294117647059,2.7745098039215685,2.7908496732026142,2.8562091503267975,2.843137254901961,2.761437908496732,2.764705882352941,2.7973856209150325,2.849673202614379,2.8300653594771243,2.8366013071895426,2.9607843137254903,2.9836601307189543,2.954248366013072,2.8366013071895426,2.7483660130718954,2.8529411764705883,2.843137254901961,2.823529411764706,2.8562091503267975,2.9248366013071894,2.9313725490196076,2.918300653594771,2.934640522875817,2.869281045751634,2.849673202614379,2.892156862745098,2.80718954248366,2.7745098039215685,2.7745098039215685,2.7745098039215685,2.758169934640523,2.7777777777777777,2.823529411764706,2.915032679738562,2.9215686274509802,2.80718954248366,2.803921568627451,2.820261437908497,2.8823529411764706,3.0,2.9869281045751634,3.0065359477124183,3.0294117647058822,2.9640522875816995,2.9836601307189543,3.0130718954248366,2.9705882352941178,2.9901960784313726,3.0163398692810457,3.0326797385620914,3.003267973856209,2.9836601307189543,3.0555555555555554,3.052287581699346,3.0130718954248366,2.9607843137254903,2.892156862745098,2.820261437908497,2.849673202614379,2.895424836601307,2.866013071895425,2.866013071895425,2.911764705882353,2.84640522875817,2.8333333333333335,2.8137254901960786,2.8398692810457518,2.872549019607843,2.8333333333333335,2.84640522875817,2.781045751633987,2.673202614379085,2.6601307189542482,2.69281045751634,2.787581699346405,2.9444444444444446,3.212418300653595,3.526143790849673,3.7973856209150325,3.9673202614379086,3.892156862745098,3.5751633986928106,3.3137254901960786,3.0915032679738563,3.0130718954248366,3.0065359477124183,2.9673202614379086,2.9019607843137254,2.9248366013071894,2.947712418300654,2.8366013071895426,2.8398692810457518,2.8627450980392157,2.849673202614379,2.84640522875817,2.8790849673202614,2.8856209150326797,2.803921568627451,2.826797385620915,2.823529411764706,2.8398692810457518,2.849673202614379,2.84640522875817,2.84640522875817,2.8366013071895426,2.8856209150326797,2.8823529411764706,2.8790849673202614,2.888888888888889,2.820261437908497,2.810457516339869,2.869281045751634,2.8562091503267975,2.866013071895425,2.888888888888889,2.8594771241830066,2.915032679738562,2.9052287581699345,2.918300653594771,2.9673202614379086,2.977124183006536,2.9313725490196076,2.892156862745098,2.934640522875817,2.9379084967320264,2.9379084967320264,2.9901960784313726,2.9869281045751634,2.9673202614379086,2.9901960784313726,2.9673202614379086,2.973856209150327,3.045751633986928,3.0620915032679736,3.065359477124183,3.065359477124183,3.0163398692810457,3.022875816993464,3.0620915032679736,3.0751633986928106,3.0980392156862746,3.111111111111111,3.1013071895424837,3.0751633986928106,3.1013071895424837,3.0751633986928106,3.022875816993464,3.026143790849673,3.049019607843137,3.111111111111111,3.049019607843137,2.9705882352941178,3.0163398692810457,3.0326797385620914,2.9836601307189543,2.973856209150327,2.977124183006536,2.954248366013072,2.9607843137254903,2.9934640522875817,2.973856209150327,2.9215686274509802,2.947712418300654,2.9836601307189543,2.954248366013072,2.9673202614379086,2.954248366013072,2.9444444444444446,2.947712418300654,2.980392156862745,2.996732026143791,2.9869281045751634,2.977124183006536,2.957516339869281,2.9215686274509802,2.9052287581699345,2.915032679738562,2.934640522875817,2.9215686274509802,2.895424836601307,2.9215686274509802,2.9411764705882355,2.9281045751633985,2.9084967320261437,2.9379084967320264,2.9379084967320264,2.8823529411764706,2.895424836601307,2.934640522875817,2.950980392156863,2.954248366013072,2.888888888888889,2.866013071895425,2.9052287581699345,2.9313725490196076,2.9052287581699345,2.895424836601307,2.9444444444444446,2.9934640522875817,2.954248366013072,2.9084967320261437,2.954248366013072,3.0326797385620914,3.022875816993464,3.0098039215686274,3.0359477124183005,3.022875816993464,3.045751633986928,3.0947712418300655,3.15359477124183,3.1209150326797386,3.104575163398693,3.003267973856209,3.0098039215686274,3.026143790849673,3.042483660130719,3.0359477124183005,3.003267973856209,2.9869281045751634,2.977124183006536,2.9248366013071894,2.8790849673202614,2.8758169934640523,2.8790849673202614,2.8758169934640523,2.8986928104575163,2.947712418300654,2.892156862745098,2.866013071895425,2.872549019607843,2.8594771241830066,2.823529411764706,2.781045751633987,2.7320261437908497,2.7745098039215685,2.816993464052288,2.8300653594771243,3.0326797385620914,3.3529411764705883,3.673202614379085,4.0,4.107843137254902,3.9019607843137254,3.526143790849673,3.2091503267973858,3.0686274509803924,3.052287581699346,3.0751633986928106,3.081699346405229,3.0392156862745097,2.950980392156863,2.9444444444444446,2.911764705882353,2.8986928104575163,2.895424836601307,2.8758169934640523,2.869281045751634,2.8627450980392157,2.895424836601307,2.9084967320261437,2.888888888888889,2.8594771241830066,2.8823529411764706,2.8790849673202614,2.8823529411764706,2.8790849673202614,2.8856209150326797,2.9379084967320264,2.9313725490196076,2.9052287581699345,2.8529411764705883,2.843137254901961,2.8758169934640523,2.9248366013071894,2.957516339869281,2.9379084967320264,2.915032679738562,2.9019607843137254,2.8856209150326797,2.9248366013071894,2.9052287581699345,2.911764705882353,2.9673202614379086,2.9281045751633985,2.8986928104575163,2.915032679738562,2.980392156862745,2.9836601307189543,2.9869281045751634,2.9901960784313726,3.019607843137255,3.0620915032679736,3.022875816993464,3.022875816993464,3.081699346405229,3.133986928104575,3.15359477124183,3.0718954248366015,3.1013071895424837,3.196078431372549,3.2058823529411766,3.1699346405228757,3.1633986928104574,3.1241830065359477,3.104575163398693,3.111111111111111,3.049019607843137,3.026143790849673,2.996732026143791,2.973856209150327,2.9705882352941178,2.957516339869281,2.947712418300654,2.954248366013072,2.9640522875816995,2.950980392156863,2.9673202614379086,2.977124183006536,2.9869281045751634,2.947712418300654,2.915032679738562,2.9411764705882355,2.9444444444444446,2.9248366013071894,2.915032679738562,2.9281045751633985,2.9084967320261437,2.8986928104575163,2.9019607843137254,2.9052287581699345,2.9313725490196076,2.9215686274509802,2.9019607843137254,2.9019607843137254,2.9281045751633985,2.8986928104575163,2.8856209150326797,2.8986928104575163,2.9019607843137254,2.915032679738562,2.9215686274509802,2.9052287581699345,2.9084967320261437,2.892156862745098,2.869281045751634,2.843137254901961,2.872549019607843,2.915032679738562,2.9052287581699345,2.8627450980392157,2.8790849673202614,2.9215686274509802,2.8856209150326797,2.8823529411764706,2.866013071895425,2.866013071895425,2.888888888888889,2.934640522875817,2.9640522875816995,2.9607843137254903,2.9411764705882355,2.9313725490196076,2.9248366013071894,2.9640522875816995,2.957516339869281,2.9444444444444446,2.9869281045751634,2.9934640522875817,3.0098039215686274,3.026143790849673,3.065359477124183,3.0392156862745097,3.0359477124183005,3.0163398692810457,3.022875816993464,3.088235294117647,3.0392156862745097,2.8856209150326797,2.8627450980392157,2.9444444444444446,2.973856209150327,2.9215686274509802,2.8758169934640523,2.8758169934640523,2.843137254901961,2.803921568627451,2.820261437908497,2.849673202614379,2.84640522875817,2.8594771241830066,2.8529411764705883,2.8333333333333335,2.761437908496732,2.679738562091503,2.6470588235294117,2.7091503267973858,2.7745098039215685,2.8823529411764706,3.156862745098039,3.447712418300654,3.6993464052287583,3.954248366013072,3.9019607843137254,3.6143790849673203,3.343137254901961,3.1405228758169934,3.0130718954248366,2.957516339869281,2.9281045751633985,2.9281045751633985,2.915032679738562,2.8758169934640523,2.888888888888889,2.8398692810457518,2.7679738562091503,2.8333333333333335,2.866013071895425,2.8333333333333335,2.761437908496732,2.7777777777777777,2.8137254901960786,2.843137254901961,2.8529411764705883,2.8398692810457518,2.8300653594771243,2.823529411764706,2.810457516339869,2.823529411764706,2.849673202614379,2.8366013071895426,2.820261437908497,2.810457516339869,2.820261437908497,2.8398692810457518,2.8562091503267975,2.843137254901961,2.8333333333333335,2.7973856209150325,2.8562091503267975,2.8627450980392157,2.8627450980392157,2.918300653594771,2.9313725490196076,2.8823529411764706,2.8562091503267975,2.866013071895425,2.8986928104575163,2.9379084967320264,2.957516339869281,2.9640522875816995,2.950980392156863,2.980392156862745,2.9934640522875817,3.003267973856209,3.0294117647058822,3.019607843137255,3.0163398692810457,3.0163398692810457,3.0163398692810457,3.049019607843137,3.052287581699346,3.081699346405229,3.0947712418300655,3.0915032679738563,3.0784313725490198,3.0065359477124183,2.9934640522875817,3.0098039215686274,2.9869281045751634,2.9607843137254903,2.9901960784313726,2.977124183006536,2.9281045751633985,2.9084967320261437,2.892156862745098,2.888888888888889,2.8758169934640523,2.869281045751634,2.9215686274509802,2.9313725490196076,2.872549019607843,2.872549019607843,2.9281045751633985,2.9411764705882355,2.915032679738562,2.9052287581699345,2.9084967320261437,2.892156862745098,2.872549019607843,2.843137254901961,2.8627450980392157,2.9215686274509802,2.950980392156863,2.918300653594771,2.866013071895425,2.8823529411764706,2.8823529411764706,2.8529411764705883,2.8300653594771243,2.8562091503267975,2.9052287581699345,2.947712418300654,2.9019607843137254,2.820261437908497,2.843137254901961,2.8790849673202614,2.8758169934640523,2.872549019607843,2.869281045751634,2.8594771241830066,2.895424836601307,2.8758169934640523,2.8594771241830066,2.8627450980392157,2.8986928104575163,2.895424836601307,2.866013071895425,2.872549019607843,2.895424836601307,2.9673202614379086,2.950980392156863,2.8823529411764706,2.8986928104575163,2.9379084967320264,2.9640522875816995,2.9869281045751634,2.947712418300654,2.8986928104575163,2.973856209150327,3.0392156862745097,3.0686274509803924,3.0784313725490198,3.0784313725490198,3.045751633986928,3.0359477124183005,3.0163398692810457,2.980392156862745,2.980392156862745,2.9379084967320264,2.892156862745098,2.892156862745098,2.843137254901961,2.810457516339869,2.803921568627451,2.8137254901960786,2.8398692810457518,2.8627450980392157,2.8333333333333335,2.8366013071895426,2.8758169934640523,2.872549019607843,2.843137254901961,2.7941176470588234,2.7450980392156863,2.7058823529411766,2.6633986928104574,2.689542483660131,2.7679738562091503,2.911764705882353,3.130718954248366,3.4313725490196076,3.738562091503268,3.957516339869281,3.8627450980392157,3.5588235294117645,3.349673202614379,3.196078431372549,3.0751633986928106,3.003267973856209,3.0163398692810457,3.0098039215686274,2.9444444444444446,2.8823529411764706,2.8366013071895426,2.803921568627451,2.8006535947712417,2.843137254901961,2.8398692810457518,2.810457516339869,2.820261437908497,2.810457516339869,2.803921568627451,2.8366013071895426,2.8562091503267975,2.8398692810457518,2.8300653594771243,2.8366013071895426,2.8823529411764706,2.810457516339869,2.784313725490196,2.816993464052288,2.843137254901961,2.84640522875817,2.8398692810457518,2.8137254901960786,2.8300653594771243,2.8790849673202614,2.869281045751634,2.872549019607843,2.8758169934640523,2.8790849673202614,2.8758169934640523,2.8790849673202614,2.84640522875817,2.849673202614379,2.816993464052288,2.8137254901960786,2.9019607843137254,2.950980392156863,2.934640522875817,2.9248366013071894,2.9673202614379086,2.9869281045751634,2.9281045751633985,2.9379084967320264,2.9901960784313726,3.026143790849673,3.026143790849673,2.973856209150327,2.973856209150327,3.0098039215686274,3.0130718954248366,3.052287581699346,3.045751633986928,3.0163398692810457,2.9934640522875817,2.9705882352941178,3.003267973856209,3.019607843137255,2.9869281045751634,2.9411764705882355,2.888888888888889,2.869281045751634,2.888888888888889,2.911764705882353,2.8529411764705883,2.7777777777777777,2.820261437908497,2.8529411764705883,2.8856209150326797,2.8529411764705883,2.826797385620915,2.8333333333333335,2.8594771241830066,2.8627450980392157,2.866013071895425,2.8627450980392157,2.816993464052288,2.8006535947712417,2.8398692810457518,2.826797385620915,2.869281045751634,2.869281045751634,2.843137254901961,2.8366013071895426,2.7777777777777777,2.784313725490196,2.787581699346405,2.673202614379085,2.588235294117647,2.5718954248366015,2.5555555555555554,2.630718954248366,2.7941176470588234,2.8529411764705883,2.8137254901960786,2.7091503267973858,2.6013071895424837,2.4901960784313726,2.473856209150327,2.5620915032679736,2.5980392156862746,2.6405228758169934,2.650326797385621,2.6176470588235294,2.6666666666666665,2.7320261437908497,2.758169934640523,2.803921568627451,2.8398692810457518,2.8529411764705883,2.8790849673202614,2.8986928104575163,2.9281045751633985,2.977124183006536,3.003267973856209,2.9640522875816995,2.9379084967320264,2.9901960784313726,3.045751633986928,3.003267973856209,2.915032679738562,3.0130718954248366,3.0392156862745097,2.950980392156863,2.9248366013071894,2.947712418300654,3.0,3.0294117647058822,3.042483660130719,3.0620915032679736,3.0620915032679736,3.052287581699346,3.081699346405229,3.1699346405228757,3.212418300653595,3.179738562091503,3.183006535947712,3.2287581699346406,3.264705882352941,3.3333333333333335,3.3366013071895426,3.320261437908497,3.2941176470588234,3.320261437908497,3.3300653594771243,3.3823529411764706,3.3758169934640523,3.3398692810457518,3.3300653594771243,3.303921568627451,3.258169934640523,3.235294117647059,3.215686274509804,3.189542483660131,3.1405228758169934,3.1209150326797386,3.107843137254902,3.065359477124183,3.022875816993464,2.9836601307189543,2.9444444444444446,2.9444444444444446,2.915032679738562,2.9084967320261437,2.9215686274509802,2.823529411764706,2.8137254901960786,2.843137254901961,2.823529411764706,2.7941176470588234,2.820261437908497,2.8627450980392157,2.8627450980392157,2.80718954248366,2.8006535947712417,2.7745098039215685,2.803921568627451,2.8300653594771243,2.8137254901960786,2.7777777777777777,2.7777777777777777,2.816993464052288,2.8137254901960786,2.816993464052288,2.80718954248366,2.7777777777777777,2.718954248366013,2.764705882352941,2.872549019607843,2.888888888888889,2.7516339869281046,2.696078431372549,2.7483660130718954,2.738562091503268,2.7777777777777777,2.843137254901961,2.7777777777777777,2.7777777777777777,2.7712418300653594,2.7712418300653594,2.7679738562091503,2.7679738562091503,2.7777777777777777,2.7908496732026142,2.741830065359477,2.735294117647059,2.7222222222222223,2.7058823529411766,2.712418300653595,2.761437908496732,2.787581699346405,2.781045751633987,2.735294117647059,2.735294117647059,2.741830065359477,2.7679738562091503,2.7516339869281046,2.7549019607843137,2.758169934640523,2.7777777777777777,2.7549019607843137,2.7450980392156863,2.7450980392156863,2.7320261437908497,2.7058823529411766,2.7483660130718954,2.764705882352941,2.7287581699346406,2.7320261437908497,2.7222222222222223,2.683006535947712,2.7287581699346406,2.7908496732026142,2.7549019607843137,2.7483660130718954,2.715686274509804,2.712418300653595,2.7287581699346406,2.7679738562091503,2.7679738562091503,2.7712418300653594,2.741830065359477,2.718954248366013,2.7450980392156863,2.7941176470588234,2.7679738562091503,2.7222222222222223,2.7222222222222223,2.7450980392156863,2.7908496732026142,2.758169934640523,2.696078431372549,2.7254901960784315,2.738562091503268,2.738562091503268,2.758169934640523,2.696078431372549,2.69281045751634,2.7483660130718954,2.7516339869281046,2.7320261437908497,2.738562091503268,2.712418300653595,2.7091503267973858,2.735294117647059,2.7254901960784315,2.712418300653595,2.735294117647059,2.7450980392156863,2.712418300653595,2.696078431372549,2.718954248366013,2.7287581699346406,2.7483660130718954,2.741830065359477,2.758169934640523,2.7777777777777777,2.7941176470588234,2.7777777777777777,2.781045751633987,2.7941176470588234,2.8594771241830066,2.8562091503267975,2.8006535947712417,2.8529411764705883,2.9313725490196076,2.9313725490196076,2.911764705882353,2.872549019607843,2.8627450980392157,2.84640522875817,2.8137254901960786,2.7745098039215685,2.741830065359477,2.7483660130718954,2.715686274509804,2.718954248366013,2.7450980392156863,2.7287581699346406,2.712418300653595,2.7058823529411766,2.718954248366013,2.7320261437908497,2.7058823529411766,2.7254901960784315,2.696078431372549,2.627450980392157,2.565359477124183,2.5359477124183005,2.5980392156862746,2.6633986928104574,2.80718954248366,3.049019607843137,3.303921568627451,3.6143790849673203,3.810457516339869,3.715686274509804,3.4248366013071894,3.176470588235294,3.026143790849673,2.8986928104575163,2.8529411764705883,2.7483660130718954,2.7483660130718954,2.787581699346405,2.7712418300653594,2.735294117647059,2.696078431372549,2.7026143790849675,2.7026143790849675,2.7222222222222223,2.696078431372549,2.6601307189542482,2.7091503267973858,2.7516339869281046,2.7222222222222223,2.676470588235294,2.6372549019607843,2.679738562091503,2.7254901960784315,2.741830065359477,2.738562091503268,2.6993464052287583,2.7058823529411766,2.718954248366013,2.7254901960784315,2.7483660130718954,2.7679738562091503,2.7745098039215685,2.781045751633987,2.7254901960784315,2.679738562091503,2.715686274509804,2.787581699346405,2.8300653594771243,2.784313725490196,2.758169934640523,2.7712418300653594,2.7712418300653594,2.7287581699346406,2.781045751633987,2.7908496732026142,2.8137254901960786,2.8300653594771243,2.8529411764705883,2.84640522875817,2.7941176470588234,2.8333333333333335,2.8823529411764706,2.8856209150326797,2.888888888888889,2.869281045751634,2.8823529411764706,2.9379084967320264,2.934640522875817,2.9281045751633985,2.892156862745098,2.895424836601307,2.918300653594771,2.918300653594771,2.9084967320261437,2.888888888888889,2.869281045751634,2.8823529411764706,2.918300653594771,2.8758169934640523,2.758169934640523,2.761437908496732,2.7908496732026142,2.8366013071895426,2.8333333333333335,2.7777777777777777,2.787581699346405,2.761437908496732,2.7745098039215685,2.735294117647059,2.6993464052287583,2.7287581699346406,2.7287581699346406,2.7450980392156863,2.735294117647059,2.735294117647059,2.735294117647059,2.7483660130718954,2.7222222222222223,2.715686274509804,2.7712418300653594,2.7777777777777777,2.7483660130718954,2.7450980392156863,2.758169934640523,2.7450980392156863,2.7450980392156863,2.738562091503268,2.7254901960784315,2.738562091503268,2.758169934640523,2.7483660130718954,2.7091503267973858,2.696078431372549,2.7091503267973858,2.715686274509804,2.7254901960784315,2.7254901960784315,2.7254901960784315,2.7450980392156863,2.7320261437908497,2.7091503267973858,2.758169934640523,2.7745098039215685,2.7058823529411766,2.6993464052287583,2.758169934640523,2.7712418300653594,2.758169934640523,2.7941176470588234,2.7941176470588234,2.820261437908497,2.8366013071895426,2.8006535947712417,2.761437908496732,2.7908496732026142,2.8594771241830066,2.911764705882353,2.9313725490196076,2.915032679738562,2.8790849673202614,2.869281045751634,2.8790849673202614,2.8562091503267975,2.8366013071895426,2.803921568627451,2.761437908496732,2.7516339869281046,2.7549019607843137,2.7320261437908497,2.718954248366013,2.738562091503268,2.741830065359477,2.718954248366013,2.6862745098039214,2.6601307189542482,2.676470588235294,2.696078431372549,2.712418300653595,2.6993464052287583,2.6862745098039214,2.584967320261438,2.5065359477124183,2.519607843137255,2.6176470588235294,2.7516339869281046,3.0163398692810457,3.349673202614379,3.673202614379085,3.787581699346405,3.69281045751634,3.4248366013071894,3.1633986928104574,3.003267973856209,2.915032679738562,2.8594771241830066,2.8300653594771243,2.80718954248366,2.816993464052288,2.8137254901960786,2.7549019607843137,2.696078431372549,2.6993464052287583,2.689542483660131,2.7026143790849675,2.6862745098039214,2.7026143790849675,2.7254901960784315,2.7026143790849675,2.676470588235294,2.679738562091503,2.676470588235294,2.683006535947712,2.69281045751634,2.7222222222222223,2.715686274509804,2.7254901960784315,2.7483660130718954,2.741830065359477,2.7254901960784315,2.7516339869281046,2.7091503267973858,2.6862745098039214,2.7091503267973858,2.735294117647059,2.735294117647059,2.764705882352941,2.784313725490196,2.803921568627451,2.761437908496732,2.738562091503268,2.764705882352941,2.7777777777777777,2.810457516339869,2.803921568627451,2.8137254901960786,2.810457516339869,2.826797385620915,2.872549019607843,2.872549019607843,2.9084967320261437,2.9444444444444446,2.996732026143791,2.950980392156863,2.8594771241830066,2.892156862745098,2.954248366013072,2.9901960784313726,2.9607843137254903,2.9215686274509802,2.9052287581699345,2.9281045751633985,2.9411764705882355,2.947712418300654,2.9019607843137254,2.892156862745098,2.872549019607843,2.8398692810457518,2.8300653594771243,2.843137254901961,2.8137254901960786,2.758169934640523,2.741830065359477,2.7941176470588234,2.7777777777777777,2.718954248366013,2.7483660130718954,2.738562091503268,2.7483660130718954,2.7450980392156863,2.7222222222222223,2.7222222222222223,2.7320261437908497,2.715686274509804,2.7320261437908497,2.7254901960784315,2.712418300653595,2.7254901960784315,2.7320261437908497,2.741830065359477,2.738562091503268,2.7712418300653594,2.7450980392156863,2.696078431372549,2.7026143790849675,2.7091503267973858,2.6666666666666665,2.6601307189542482,2.7287581699346406,2.758169934640523,2.738562091503268,2.761437908496732,2.738562091503268,2.679738562091503,2.7254901960784315,2.7450980392156863,2.738562091503268,2.712418300653595,2.679738562091503,2.7026143790849675,2.7091503267973858,2.69281045751634,2.696078431372549,2.7254901960784315,2.741830065359477,2.7516339869281046,2.7516339869281046,2.741830065359477,2.7483660130718954,2.7973856209150325,2.826797385620915,2.764705882352941,2.787581699346405,2.8137254901960786,2.784313725490196,2.823529411764706,2.892156862745098,2.8986928104575163,2.911764705882353,2.9215686274509802,2.9379084967320264,2.918300653594771,2.8856209150326797,2.8627450980392157,2.849673202614379,2.803921568627451,2.761437908496732,2.7483660130718954,2.7777777777777777,2.7777777777777777,2.7450980392156863,2.7222222222222223,2.7026143790849675,2.715686274509804,2.715686274509804,2.718954248366013,2.679738562091503,2.6699346405228757,2.696078431372549,2.683006535947712,2.6666666666666665,2.607843137254902,2.5784313725490198,2.549019607843137,2.5718954248366015,2.656862745098039,2.8333333333333335,3.1176470588235294,3.418300653594771,3.7320261437908497,3.9084967320261437,3.7745098039215685,3.447712418300654,3.183006535947712,3.022875816993464,2.9313725490196076,2.9313725490196076,2.8790849673202614,2.816993464052288,2.8398692810457518,2.7679738562091503,2.738562091503268,2.69281045751634,2.7026143790849675,2.7026143790849675,2.679738562091503,2.683006535947712,2.689542483660131,2.676470588235294,2.696078431372549,2.69281045751634,2.6993464052287583,2.7026143790849675,2.7320261437908497,2.7058823529411766,2.6862745098039214,2.676470588235294,2.6601307189542482,2.679738562091503,2.7058823529411766,2.7320261437908497,2.683006535947712,2.676470588235294,2.715686274509804,2.718954248366013,2.735294117647059,2.761437908496732,2.741830065359477,2.7483660130718954,2.735294117647059,2.7091503267973858,2.735294117647059,2.7679738562091503,2.781045751633987,2.8006535947712417,2.7679738562091503,2.741830065359477,2.803921568627451,2.849673202614379,2.8529411764705883,2.823529411764706,2.888888888888889,2.9379084967320264,2.918300653594771,2.892156862745098,2.9281045751633985,2.9444444444444446,2.9607843137254903,2.9673202614379086,2.9313725490196076,2.9313725490196076,2.9607843137254903,2.9640522875816995,2.9248366013071894,2.9052287581699345,2.895424836601307,2.8823529411764706,2.8758169934640523,2.8594771241830066,2.8366013071895426,2.781045751633987,2.7712418300653594,2.816993464052288,2.816993464052288,2.7777777777777777,2.7483660130718954,2.7908496732026142,2.764705882352941,2.7320261437908497,2.7058823529411766,2.718954248366013,2.7320261437908497,2.738562091503268,2.7908496732026142,2.8137254901960786,2.803921568627451,2.7777777777777777,2.7549019607843137,2.735294117647059,2.7254901960784315,2.718954248366013,2.7450980392156863,2.758169934640523,2.7712418300653594,2.7516339869281046,2.7516339869281046,2.7712418300653594,2.764705882352941,2.764705882352941,2.7941176470588234,2.826797385620915,2.787581699346405,2.679738562091503,2.656862745098039,2.69281045751634,2.7222222222222223,2.761437908496732,2.7712418300653594,2.758169934640523,2.7254901960784315,2.7549019607843137,2.761437908496732,2.738562091503268,2.712418300653595,2.7254901960784315,2.7712418300653594,2.781045751633987,2.8006535947712417,2.784313725490196,2.761437908496732,2.7973856209150325,2.7973856209150325,2.8006535947712417,2.7745098039215685,2.7745098039215685,2.7941176470588234,2.816993464052288,2.866013071895425,2.918300653594771,2.9379084967320264,2.9248366013071894,2.8758169934640523,2.8627450980392157,2.8758169934640523,2.8823529411764706,2.823529411764706,2.7745098039215685,2.7777777777777777,2.7516339869281046,2.7222222222222223,2.7058823529411766,2.7026143790849675,2.696078431372549,2.7483660130718954,2.718954248366013,2.6372549019607843,2.6666666666666665,2.650326797385621,2.633986928104575,2.6470588235294117,2.6633986928104574,2.607843137254902,2.5294117647058822,2.496732026143791,2.5065359477124183,2.5751633986928106,2.735294117647059,2.9901960784313726,3.281045751633987,3.581699346405229,3.8137254901960786,3.7091503267973858,3.3856209150326797,3.15359477124183,3.019607843137255,2.8627450980392157,2.7745098039215685,2.7745098039215685,2.810457516339869,2.7320261437908497,2.633986928104575,2.6470588235294117,2.6372549019607843,2.6601307189542482,2.6601307189542482,2.65359477124183,2.6437908496732025,2.630718954248366,2.6241830065359477,2.630718954248366,2.611111111111111,2.5947712418300655,2.584967320261438,2.65359477124183,2.65359477124183,2.6372549019607843,2.6372549019607843,2.6470588235294117,2.6666666666666665,2.6470588235294117,2.65359477124183,2.676470588235294,2.650326797385621,2.6405228758169934,2.627450980392157,2.683006535947712,2.7026143790849675,2.6862745098039214,2.6633986928104574,2.6437908496732025,2.696078431372549,2.696078431372549,2.696078431372549,2.7058823529411766,2.69281045751634,2.689542483660131,2.738562091503268,2.7450980392156863,2.7222222222222223,2.7679738562091503,2.810457516339869,2.784313725490196,2.7908496732026142,2.849673202614379,2.8333333333333335,2.8333333333333335,2.849673202614379,2.866013071895425,2.866013071895425,2.872549019607843,2.8986928104575163,2.9084967320261437,2.9084967320261437,2.8758169934640523,2.8137254901960786,2.803921568627451,2.7777777777777777,2.7712418300653594,2.8006535947712417,2.7516339869281046,2.69281045751634,2.683006535947712,2.673202614379085,2.715686274509804,2.683006535947712,2.633986928104575,2.65359477124183,2.6633986928104574,2.633986928104575,2.6372549019607843,2.673202614379085,2.696078431372549,2.696078431372549,2.630718954248366,2.6176470588235294,2.6372549019607843,2.6372549019607843,2.6372549019607843,2.6601307189542482,2.6470588235294117,2.6666666666666665,2.676470588235294,2.673202614379085,2.6437908496732025,2.5980392156862746,2.5751633986928106,2.552287581699346,2.480392156862745,2.4248366013071894,2.4705882352941178,2.6241830065359477,2.673202614379085,2.6241830065359477,2.503267973856209,2.4281045751633985,2.3366013071895426,2.2516339869281046,2.30718954248366,2.4084967320261437,2.4379084967320264,2.457516339869281,2.4705882352941178,2.4836601307189543,2.4444444444444446,2.5326797385620914,2.633986928104575,2.650326797385621,2.6666666666666665,2.679738562091503,2.6633986928104574,2.7026143790849675,2.764705882352941,2.7745098039215685,2.7745098039215685,2.7745098039215685,2.7712418300653594,2.7941176470588234,2.758169934640523,2.7450980392156863,2.7549019607843137,2.741830065359477,2.741830065359477,2.7549019607843137,2.7745098039215685,2.7745098039215685,2.8137254901960786,2.8594771241830066,2.849673202614379,2.803921568627451,2.84640522875817,2.892156862745098,2.9052287581699345,2.947712418300654,2.977124183006536,2.977124183006536,3.0098039215686274,3.0620915032679736,3.084967320261438,3.127450980392157,3.1405228758169934,3.2026143790849675,3.2058823529411766,3.1372549019607843,3.104575163398693,3.133986928104575,3.1601307189542482,3.150326797385621,3.1241830065359477,3.1176470588235294,3.049019607843137,3.0294117647058822,2.9934640522875817,2.934640522875817,2.9444444444444446,2.9379084967320264,2.8986928104575163,2.8856209150326797,2.8627450980392157,2.843137254901961,2.7712418300653594,2.718954248366013,2.7320261437908497,2.715686274509804,2.735294117647059,2.715686274509804,2.6666666666666665,2.650326797385621,2.65359477124183,2.6699346405228757,2.6601307189542482,2.679738562091503,2.7222222222222223,2.689542483660131,2.6209150326797386,2.5980392156862746,2.6372549019607843,2.6633986928104574,2.6666666666666665,2.633986928104575,2.611111111111111,2.650326797385621,2.679738562091503,2.6699346405228757,2.6666666666666665,2.6372549019607843,2.5588235294117645,2.5980392156862746,2.6241830065359477,2.6372549019607843,2.673202614379085,2.6241830065359477,2.6209150326797386,2.65359477124183,2.656862745098039,2.6013071895424837,2.6209150326797386,2.6601307189542482,2.6372549019607843,2.607843137254902,2.630718954248366,2.683006535947712,2.6862745098039214,2.6601307189542482,2.627450980392157,2.607843137254902,2.6143790849673203,2.588235294117647,2.5980392156862746,2.6176470588235294,2.69281045751634,2.6862745098039214,2.679738562091503,2.673202614379085,2.627450980392157,2.5947712418300655,2.5588235294117645,2.6143790849673203,2.6633986928104574,2.6405228758169934,2.6241830065359477,2.656862745098039,2.6405228758169934,2.6405228758169934,2.673202614379085,2.650326797385621,2.611111111111111,2.611111111111111,2.6013071895424837,2.584967320261438,2.5980392156862746,2.630718954248366,2.5980392156862746,2.5947712418300655,2.5947712418300655,2.6176470588235294,2.6013071895424837,2.526143790849673,2.542483660130719,2.565359477124183,2.581699346405229,2.607843137254902,2.6241830065359477,2.6209150326797386,2.584967320261438,2.5751633986928106,2.5620915032679736,2.552287581699346,2.565359477124183,2.6013071895424837,2.5980392156862746,2.6241830065359477,2.6601307189542482,2.656862745098039,2.6143790849673203,2.5915032679738563,2.6013071895424837,2.6013071895424837,2.6143790849673203,2.627450980392157,2.5980392156862746,2.5980392156862746,2.630718954248366,2.6666666666666665,2.633986928104575,2.552287581699346,2.545751633986928,2.5980392156862746,2.5718954248366015,2.5980392156862746,2.6437908496732025,2.5686274509803924,2.581699346405229,2.6470588235294117,2.7026143790849675,2.6143790849673203,2.5915032679738563,2.627450980392157,2.696078431372549,2.6633986928104574,2.656862745098039,2.6601307189542482,2.6601307189542482,2.735294117647059,2.8137254901960786,2.7745098039215685,2.7549019607843137,2.7973856209150325,2.7777777777777777,2.735294117647059,2.7320261437908497,2.7320261437908497,2.7320261437908497,2.6699346405228757,2.5130718954248366,2.5163398692810457,2.5163398692810457,2.549019607843137,2.5326797385620914,2.503267973856209,2.5130718954248366,2.522875816993464,2.5915032679738563,2.5392156862745097,2.5163398692810457,2.522875816993464,2.4705882352941178,2.349673202614379,2.323529411764706,2.4019607843137254,2.5098039215686274,2.69281045751634,2.911764705882353,3.212418300653595,3.5130718954248366,3.7679738562091503,3.6601307189542482,3.2941176470588234,3.0,2.843137254901961,2.7908496732026142,2.735294117647059,2.6241830065359477,2.584967320261438,2.607843137254902,2.581699346405229,2.549019607843137,2.5163398692810457,2.542483660130719,2.526143790849673,2.5294117647058822,2.5326797385620914,2.5065359477124183,2.5751633986928106,2.5947712418300655,2.5359477124183005,2.4869281045751634,2.5163398692810457,2.5980392156862746,2.581699346405229,2.522875816993464,2.581699346405229,2.5392156862745097,2.519607843137255,2.552287581699346,2.549019607843137,2.552287581699346,2.5163398692810457,2.5784313725490198,2.630718954248366,2.6241830065359477,2.5686274509803924,2.6176470588235294,2.683006535947712,2.683006535947712,2.5751633986928106,2.6013071895424837,2.6372549019607843,2.6176470588235294,2.696078431372549,2.689542483660131,2.630718954248366,2.6372549019607843,2.6372549019607843,2.6241830065359477,2.630718954248366,2.718954248366013,2.7320261437908497,2.764705882352941,2.8562091503267975,2.7941176470588234,2.7483660130718954,2.7549019607843137,2.784313725490196,2.810457516339869,2.869281045751634,2.84640522875817,2.758169934640523,2.7483660130718954,2.764705882352941,2.7908496732026142,2.8529411764705883,2.911764705882353,2.80718954248366,2.6666666666666665,2.6209150326797386,2.5915032679738563,2.630718954248366,2.712418300653595,2.7091503267973858,2.7287581699346406,2.758169934640523,2.7254901960784315,2.633986928104575,2.581699346405229,2.6862745098039214,2.7549019607843137,2.7287581699346406,2.676470588235294,2.5359477124183005,2.5588235294117645,2.6601307189542482,2.630718954248366,2.6209150326797386,2.611111111111111,2.5915032679738563,2.627450980392157,2.656862745098039,2.584967320261438,2.5784313725490198,2.6666666666666665,2.6209150326797386,2.5980392156862746,2.5555555555555554,2.542483660130719,2.5718954248366015,2.6143790849673203,2.611111111111111,2.6437908496732025,2.650326797385621,2.6013071895424837,2.5718954248366015,2.588235294117647,2.5947712418300655,2.604575163398693,2.6372549019607843,2.6176470588235294,2.607843137254902,2.6666666666666665,2.683006535947712,2.607843137254902,2.6013071895424837,2.604575163398693,2.607843137254902,2.656862745098039,2.712418300653595,2.6862745098039214,2.7026143790849675,2.6862745098039214,2.683006535947712,2.761437908496732,2.761437908496732,2.7254901960784315,2.787581699346405,2.820261437908497,2.7679738562091503,2.712418300653595,2.6470588235294117,2.673202614379085,2.6666666666666665,2.5588235294117645,2.5555555555555554,2.630718954248366,2.6633986928104574,2.6862745098039214,2.6013071895424837,2.519607843137255,2.5294117647058822,2.4869281045751634,2.450980392156863,2.477124183006536,2.627450980392157,2.6470588235294117,2.526143790849673,2.415032679738562,2.411764705882353,2.392156862745098,2.4248366013071894,2.4836601307189543,2.4281045751633985,2.5718954248366015,2.8137254901960786,3.026143790849673,3.418300653594771,3.787581699346405,3.7287581699346406,3.3790849673202614,3.045751633986928,2.7516339869281046,2.633986928104575,2.803921568627451,2.6993464052287583,2.5915032679738563,2.6633986928104574,2.611111111111111,2.5,2.4705882352941178,2.4640522875816995,2.5065359477124183,2.4705882352941178,2.565359477124183,2.584967320261438,2.522875816993464,2.5326797385620914,2.549019607843137,2.5359477124183005,2.565359477124183,2.5686274509803924,2.565359477124183,2.5947712418300655,2.5620915032679736,2.4869281045751634,2.4705882352941178,2.5718954248366015,2.6633986928104574,2.627450980392157,2.5555555555555554,2.607843137254902,2.5326797385620914,2.4869281045751634,2.5326797385620914,2.6601307189542482,2.6241830065359477,2.4869281045751634,2.5947712418300655,2.5947712418300655,2.6143790849673203,2.656862745098039,2.673202614379085,2.656862745098039,2.683006535947712,2.6633986928104574,2.7091503267973858,2.738562091503268,2.7450980392156863,2.689542483660131,2.7058823529411766,2.8562091503267975,2.8594771241830066,2.849673202614379,2.895424836601307,2.843137254901961,2.758169934640523,2.7745098039215685,2.8137254901960786,2.7908496732026142,2.8006535947712417,2.7712418300653594,2.735294117647059,2.69281045751634,2.6601307189542482,2.715686274509804,2.673202614379085,2.633986928104575,2.633986928104575,2.65359477124183,2.6470588235294117,2.5751633986928106,2.5098039215686274,2.5751633986928106,2.6013071895424837,2.630718954248366,2.565359477124183,2.542483660130719,2.5294117647058822,2.542483660130719,2.5686274509803924,2.4705882352941178,2.5065359477124183,2.503267973856209,2.552287581699346,2.633986928104575,2.6437908496732025,2.473856209150327,2.4869281045751634,2.5751633986928106,2.5784313725490198,2.4869281045751634,2.6633986928104574,2.6176470588235294,2.392156862745098,2.411764705882353,2.5326797385620914,2.5686274509803924,2.5588235294117645,2.627450980392157,2.5392156862745097,2.5326797385620914,2.633986928104575,2.519607843137255,2.3986928104575163,2.4934640522875817,2.7320261437908497,2.6143790849673203,2.4934640522875817,2.4019607843137254,2.565359477124183,2.5980392156862746,2.5588235294117645,2.6470588235294117,2.6437908496732025,2.5784313725490198,2.5555555555555554,2.6601307189542482,2.6470588235294117,2.5980392156862746,2.6209150326797386,2.5784313725490198,2.6993464052287583,2.630718954248366,2.627450980392157,2.7712418300653594,2.787581699346405,2.758169934640523,2.820261437908497,2.650326797385621,2.5718954248366015,2.758169934640523,2.5784313725490198,2.588235294117647,2.4379084967320264,2.4607843137254903,2.6437908496732025,2.5294117647058822,2.5,2.3790849673202614,2.5130718954248366,2.6601307189542482,2.549019607843137,2.4411764705882355,2.3137254901960786,2.4673202614379086,2.545751633986928,2.6013071895424837,2.418300653594771,2.2026143790849675,2.366013071895425,2.3758169934640523,2.4019607843137254,2.6372549019607843,2.911764705882353,3.2254901960784315,3.526143790849673,3.588235294117647,3.3333333333333335,3.1699346405228757,2.869281045751634,2.7679738562091503,2.7712418300653594,2.526143790849673,2.552287581699346,2.6013071895424837,2.4411764705882355,2.411764705882353,2.434640522875817,2.323529411764706,2.3594771241830066,2.3627450980392157,2.5163398692810457,2.477124183006536,2.3594771241830066,2.4411764705882355,2.4313725490196076,2.4281045751633985,2.6241830065359477,2.6372549019607843,2.3986928104575163,2.3300653594771243,2.3562091503267975,2.3758169934640523,2.4379084967320264,2.447712418300654,2.4640522875816995,2.454248366013072,2.5065359477124183,2.503267973856209,2.434640522875817,2.3562091503267975,2.3300653594771243,2.3562091503267975,2.3562091503267975,2.395424836601307,2.4934640522875817,2.5163398692810457,2.5065359477124183,2.5555555555555554,2.4869281045751634,2.5392156862745097,2.549019607843137,2.4607843137254903,2.5947712418300655,2.604575163398693,2.5686274509803924,2.584967320261438,2.611111111111111,2.676470588235294,2.735294117647059,2.7058823529411766,2.7777777777777777,2.545751633986928,2.5686274509803924,2.6601307189542482,2.65359477124183,2.6013071895424837,2.6176470588235294,2.6405228758169934,2.630718954248366,2.679738562091503,2.712418300653595,2.6862745098039214,2.588235294117647,2.503267973856209,2.5163398692810457,2.496732026143791,2.4215686274509802,2.4705882352941178,2.549019607843137,2.542483660130719,2.4901960784313726,2.5098039215686274,2.588235294117647,2.496732026143791,2.434640522875817,2.4673202614379086,2.5065359477124183,2.473856209150327,2.392156862745098,2.3529411764705883,2.3137254901960786,2.310457516339869,2.369281045751634,2.450980392156863,2.477124183006536,2.5980392156862746,2.5784313725490198,2.447712418300654,2.457516339869281,2.496732026143791,2.5130718954248366,2.5555555555555554,2.526143790849673,2.4705882352941178,2.503267973856209,2.5065359477124183,2.480392156862745,2.3986928104575163,2.3594771241830066,2.415032679738562,2.477124183006536,2.4869281045751634,2.477124183006536,2.4281045751633985,2.4411764705882355,2.480392156862745,2.526143790849673,2.5588235294117645,2.630718954248366,2.6176470588235294,2.526143790849673,2.454248366013072,2.4640522875816995,2.5065359477124183,2.6176470588235294,2.6405228758169934,2.6176470588235294,2.5718954248366015,2.542483660130719,2.5915032679738563,2.6993464052287583,2.7549019607843137,2.715686274509804,2.696078431372549,2.6633986928104574,2.650326797385621,2.581699346405229,2.5588235294117645,2.565359477124183,2.5686274509803924,2.5163398692810457,2.5130718954248366,2.5098039215686274,2.454248366013072,2.4281045751633985,2.4019607843137254,2.581699346405229,2.4640522875816995,2.372549019607843,2.3823529411764706,2.5294117647058822,2.5620915032679736,2.5359477124183005,2.415032679738562,2.3137254901960786,2.3137254901960786,2.4084967320261437,2.503267973856209,2.650326797385621,2.895424836601307,3.2450980392156863,3.5718954248366015,3.69281045751634,3.4836601307189543,3.238562091503268,2.9673202614379086,2.761437908496732,2.7450980392156863,2.7549019607843137,2.7679738562091503,2.683006535947712,2.552287581699346,2.5326797385620914,2.522875816993464,2.526143790849673,2.5359477124183005,2.5392156862745097,2.526143790849673,2.526143790849673,2.5588235294117645,2.5555555555555554,2.5065359477124183,2.4640522875816995,2.4869281045751634,2.5098039215686274,2.5294117647058822,2.549019607843137,2.5555555555555554,2.549019607843137,2.542483660130719,2.5163398692810457,2.5,2.4673202614379086,2.5359477124183005,2.6372549019607843,2.5588235294117645,2.503267973856209,2.5065359477124183,2.503267973856209,2.4869281045751634,2.5065359477124183,2.542483660130719,2.65359477124183,2.7058823529411766,2.6372549019607843,2.6176470588235294,2.683006535947712,2.6862745098039214,2.627450980392157,2.7026143790849675,2.715686274509804,2.689542483660131,2.7287581699346406,2.735294117647059,2.761437908496732,2.7973856209150325,2.8398692810457518,2.866013071895425,2.843137254901961,2.826797385620915,2.8823529411764706,2.8529411764705883,2.784313725490196,2.7549019607843137,2.8300653594771243,2.7516339869281046,2.7745098039215685,2.735294117647059,2.676470588235294,2.6470588235294117,2.7026143790849675,2.7026143790849675,2.676470588235294,2.6372549019607843,2.611111111111111,2.673202614379085,2.7450980392156863,2.735294117647059,2.6666666666666665,2.565359477124183,2.604575163398693,2.588235294117647,2.584967320261438,2.633986928104575,2.6013071895424837,2.5947712418300655,2.5980392156862746,2.5947712418300655,2.5751633986928106,2.5294117647058822,2.5718954248366015,2.6143790849673203,2.5980392156862746,2.5718954248366015,2.526143790849673,2.5326797385620914,2.5947712418300655,2.683006535947712,2.6437908496732025,2.6437908496732025,2.676470588235294,2.6601307189542482,2.6241830065359477,2.5751633986928106,2.5947712418300655,2.584967320261438,2.581699346405229,2.607843137254902,2.5980392156862746,2.552287581699346,2.5555555555555554,2.5980392156862746,2.6372549019607843,2.6143790849673203,2.584967320261438,2.588235294117647,2.712418300653595,2.738562091503268,2.6405228758169934,2.69281045751634,2.738562091503268,2.718954248366013,2.6699346405228757,2.6862745098039214,2.7222222222222223,2.7941176470588234,2.816993464052288,2.781045751633987,2.810457516339869,2.676470588235294,2.5718954248366015,2.8594771241830066,2.977124183006536,2.820261437908497,2.6470588235294117,2.676470588235294,2.5718954248366015,2.496732026143791,2.4901960784313726,2.6405228758169934,2.6405228758169934,2.5555555555555554,2.480392156862745,2.4901960784313726,2.545751633986928,2.5620915032679736,2.4901960784313726,2.477124183006536,2.4313725490196076,2.4379084967320264,2.542483660130719,2.34640522875817,2.3594771241830066,2.473856209150327,2.6241830065359477,2.8137254901960786,3.1143790849673203,3.447712418300654,3.7254901960784315,3.761437908496732,3.4673202614379086,3.133986928104575,2.9836601307189543,2.8398692810457518,2.5751633986928106,2.5588235294117645,2.5915032679738563,2.473856209150327,2.4444444444444446,2.4673202614379086,2.450980392156863,2.552287581699346,2.5392156862745097,2.5784313725490198,2.584967320261438,2.496732026143791,2.549019607843137,2.6176470588235294,2.630718954248366,2.473856209150327,2.5294117647058822,2.5359477124183005,2.454248366013072,2.434640522875817,2.519607843137255,2.545751633986928,2.5294117647058822,2.545751633986928,2.588235294117647,2.4640522875816995,2.366013071895425,2.526143790849673,2.6013071895424837,2.584967320261438,2.5980392156862746,2.542483660130719,2.5294117647058822,2.630718954248366,2.6437908496732025,2.6143790849673203,2.5686274509803924,2.5751633986928106,2.5718954248366015,2.5163398692810457,2.552287581699346,2.611111111111111,2.5588235294117645,2.542483660130719,2.65359477124183,2.679738562091503,2.7287581699346406,2.781045751633987,2.7908496732026142,2.8137254901960786,2.8300653594771243,2.816993464052288,2.826797385620915,2.80718954248366,2.7483660130718954,2.761437908496732,2.7712418300653594,2.715686274509804,2.735294117647059,2.7549019607843137,2.7450980392156863,2.676470588235294,2.6209150326797386,2.5947712418300655,2.5686274509803924,2.545751633986928,2.5784313725490198,2.5620915032679736,2.552287581699346,2.588235294117647,2.581699346405229,2.5718954248366015,2.5620915032679736,2.477124183006536,2.434640522875817,2.519607843137255,2.565359477124183,2.5980392156862746,2.5620915032679736,2.542483660130719,2.5359477124183005,2.5620915032679736,2.611111111111111,2.5947712418300655,2.5915032679738563,2.6241830065359477,2.633986928104575,2.6143790849673203,2.5294117647058822,2.549019607843137,2.5392156862745097,2.5392156862745097,2.519607843137255,2.5130718954248366,2.5620915032679736,2.5751633986928106,2.549019607843137,2.4869281045751634,2.4934640522875817,2.5718954248366015,2.545751633986928,2.588235294117647,2.6372549019607843,2.5947712418300655,2.5718954248366015,2.5392156862745097,2.5620915032679736,2.5784313725490198,2.6699346405228757,2.650326797385621,2.6372549019607843,2.7222222222222223,2.6470588235294117,2.656862745098039,2.6209150326797386,2.565359477124183,2.683006535947712,2.764705882352941,2.7973856209150325,2.80718954248366,2.787581699346405,2.718954248366013,2.6666666666666665,2.6437908496732025,2.6601307189542482,2.607843137254902,2.6405228758169934,2.6666666666666665,2.5915032679738563,2.5718954248366015,2.5784313725490198,2.5784313725490198,2.5718954248366015,2.5686274509803924,2.5980392156862746,2.588235294117647,2.581699346405229,2.5784313725490198,2.5784313725490198,2.6143790849673203,2.607843137254902,2.5359477124183005,2.4019607843137254,2.34640522875817,2.366013071895425,2.5,2.6437908496732025,2.7450980392156863,2.977124183006536,3.343137254901961,3.6666666666666665,3.6993464052287583,3.415032679738562,3.088235294117647,2.8300653594771243,2.69281045751634,2.6601307189542482,2.679738562091503,2.6405228758169934,2.5947712418300655,2.604575163398693,2.6666666666666665,2.6176470588235294,2.549019607843137,2.5620915032679736,2.542483660130719,2.5098039215686274,2.5130718954248366,2.5294117647058822,2.4934640522875817,2.5555555555555554,2.5098039215686274,2.457516339869281,2.565359477124183,2.5784313725490198,2.5163398692810457,2.552287581699346,2.5686274509803924,2.5392156862745097,2.611111111111111,2.5784313725490198,2.6143790849673203,2.5588235294117645,2.5915032679738563,2.549019607843137,2.5098039215686274,2.542483660130719,2.5098039215686274,2.549019607843137,2.552287581699346,2.549019607843137,2.7320261437908497,2.712418300653595,2.581699346405229,2.5718954248366015,2.565359477124183,2.630718954248366,2.673202614379085,2.7091503267973858,2.689542483660131,2.683006535947712,2.7450980392156863,2.758169934640523,2.6437908496732025,2.6993464052287583,2.69281045751634,2.7287581699346406,2.7973856209150325,2.888888888888889,2.888888888888889,2.8562091503267975,2.7908496732026142,2.696078431372549,2.689542483660131,2.5980392156862746,2.604575163398693,2.6993464052287583,2.69281045751634,2.718954248366013,2.656862745098039,2.633986928104575,2.676470588235294,2.679738562091503,2.6437908496732025,2.6209150326797386,2.552287581699346,2.4901960784313726,2.6372549019607843,2.65359477124183,2.5555555555555554,2.542483660130719,2.5,2.4673202614379086,2.627450980392157,2.5555555555555554,2.5947712418300655,2.581699346405229,2.565359477124183,2.5947712418300655,2.5915032679738563,2.6633986928104574,2.633986928104575,2.5718954248366015,2.5392156862745097,2.5751633986928106,2.565359477124183,2.5588235294117645,2.549019607843137,2.5359477124183005,2.519607843137255,2.545751633986928,2.526143790849673,2.545751633986928,2.630718954248366,2.6372549019607843,2.633986928104575,2.611111111111111,2.5686274509803924,2.4640522875816995,2.6209150326797386,2.7516339869281046,2.7091503267973858,2.6405228758169934,2.5784313725490198,2.5555555555555554,2.6666666666666665,2.6633986928104574,2.673202614379085,2.696078431372549,2.5947712418300655,2.679738562091503,2.7745098039215685,2.816993464052288,2.8627450980392157,2.764705882352941,2.758169934640523,2.895424836601307,2.843137254901961,2.7973856209150325,2.8137254901960786,2.784313725490196,2.7287581699346406,2.7549019607843137,2.735294117647059,2.6699346405228757,2.6143790849673203,2.673202614379085,2.6862745098039214,2.5555555555555554,2.519607843137255,2.480392156862745,2.5326797385620914,2.6209150326797386,2.6241830065359477,2.5294117647058822,2.519607843137255,2.552287581699346,2.588235294117647,2.584967320261438,2.5163398692810457,2.450980392156863,2.4836601307189543,2.630718954248366,2.866013071895425,3.104575163398693,3.369281045751634,3.6633986928104574,3.84640522875817,3.611111111111111,3.2483660130718954,2.9705882352941178,2.869281045751634,2.8398692810457518,2.7712418300653594,2.758169934640523,2.7058823529411766,2.581699346405229,2.5784313725490198,2.6437908496732025,2.656862745098039,2.6241830065359477,2.650326797385621,2.6862745098039214,2.718954248366013,2.6013071895424837,2.5294117647058822,2.611111111111111,2.6143790849673203,2.6601307189542482,2.5915032679738563,2.549019607843137,2.6372549019607843,2.7058823529411766,2.604575163398693,2.5784313725490198,2.683006535947712,2.696078431372549,2.630718954248366,2.696078431372549,2.679738562091503,2.696078431372549,2.7222222222222223,2.696078431372549,2.6633986928104574,2.7745098039215685,2.7516339869281046,2.696078431372549,2.7483660130718954,2.7516339869281046,2.735294117647059,2.764705882352941,2.816993464052288,2.8333333333333335,2.7973856209150325,2.676470588235294,2.738562091503268,2.7777777777777777,2.8300653594771243,2.8006535947712417,2.8562091503267975,2.8986928104575163,2.996732026143791,3.0130718954248366,2.872549019607843,2.980392156862745,3.0163398692810457,2.9313725490196076,2.918300653594771,2.9673202614379086,2.9215686274509802,2.8986928104575163,2.8758169934640523,2.8529411764705883,2.8366013071895426,2.8594771241830066,2.7516339869281046,2.7941176470588234,2.781045751633987,2.758169934640523,2.7222222222222223,2.712418300653595,2.764705882352941,2.781045751633987,2.611111111111111,2.656862745098039,2.784313725490196,2.758169934640523,2.738562091503268,2.7026143790849675,2.715686274509804,2.715686274509804,2.718954248366013,2.784313725490196,2.803921568627451,2.7712418300653594,2.7222222222222223,2.69281045751634,2.683006535947712,2.718954248366013,2.787581699346405,2.8137254901960786,2.7320261437908497,2.715686274509804,2.7777777777777777,2.7287581699346406,2.6209150326797386,2.565359477124183,2.683006535947712,2.676470588235294,2.7320261437908497,2.761437908496732,2.7254901960784315,2.7679738562091503,2.761437908496732,2.741830065359477,2.718954248366013,2.7058823529411766,2.718954248366013,2.7712418300653594,2.810457516339869,2.7941176470588234,2.781045751633987,2.7941176470588234,2.7320261437908497,2.712418300653595,2.7908496732026142,2.8366013071895426,2.8627450980392157,2.9411764705882355,2.9934640522875817,2.950980392156863,2.84640522875817,2.9248366013071894,3.003267973856209,2.980392156862745,2.8627450980392157,2.823529411764706,2.787581699346405,2.7712418300653594,2.803921568627451,2.8006535947712417,2.758169934640523,2.735294117647059,2.7058823529411766,2.7516339869281046,2.7450980392156863,2.7483660130718954,2.7320261437908497,2.735294117647059,2.712418300653595,2.6862745098039214,2.7549019607843137,2.7516339869281046,2.6405228758169934,2.581699346405229,2.6437908496732025,2.741830065359477,2.8333333333333335,2.934640522875817,3.084967320261438,3.4052287581699345,3.712418300653595,3.8594771241830066,3.6470588235294117,3.3333333333333335,3.130718954248366,2.9607843137254903,2.8627450980392157,2.869281045751634,2.9215686274509802,2.869281045751634,2.849673202614379,2.826797385620915,2.761437908496732,2.7254901960784315,2.820261437908497,2.816993464052288,2.7483660130718954,2.7745098039215685,2.7777777777777777,2.784313725490196,2.7777777777777777,2.8006535947712417,2.8300653594771243,2.803921568627451,2.80718954248366,2.741830065359477,2.7254901960784315,2.6993464052287583,2.6862745098039214,2.6633986928104574,2.7483660130718954,2.8790849673202614,2.8529411764705883,2.849673202614379,2.810457516339869,2.7941176470588234,2.7679738562091503,2.843137254901961,2.866013071895425,2.7777777777777777,2.735294117647059,2.823529411764706,2.84640522875817,2.8627450980392157,2.9052287581699345,2.816993464052288,2.84640522875817,2.8300653594771243,2.9215686274509802,3.0163398692810457,2.950980392156863,2.895424836601307,2.8986928104575163,2.996732026143791,3.0359477124183005,3.019607843137255,3.003267973856209,3.0359477124183005,3.0294117647058822,3.052287581699346,3.052287581699346,2.9934640522875817,3.052287581699346,3.0588235294117645,2.954248366013072,2.9215686274509802,2.9836601307189543,3.0065359477124183,2.8986928104575163,2.911764705882353,2.980392156862745,2.8856209150326797,2.843137254901961,2.892156862745098,2.866013071895425,2.911764705882353,2.8823529411764706,2.8137254901960786,2.810457516339869,2.895424836601307,2.888888888888889,2.8790849673202614,2.8529411764705883,2.9052287581699345,2.8790849673202614,2.9052287581699345,2.849673202614379,2.8398692810457518,2.9215686274509802,2.9411764705882355,2.872549019607843,2.866013071895425,2.9052287581699345,2.8986928104575163,2.869281045751634,2.866013071895425,2.8366013071895426,2.8758169934640523,2.8856209150326797,2.816993464052288,2.866013071895425,2.8594771241830066,2.8594771241830066,2.9215686274509802,2.9019607843137254,2.8758169934640523,2.849673202614379,2.866013071895425,2.8790849673202614,2.8562091503267975,2.8006535947712417,2.823529411764706,2.888888888888889,2.8986928104575163,2.9019607843137254,2.9411764705882355,2.9607843137254903,2.9607843137254903,2.9673202614379086,2.9052287581699345,2.8627450980392157,2.9673202614379086,3.0065359477124183,3.003267973856209,3.003267973856209,3.081699346405229,3.042483660130719,3.026143790849673,3.0359477124183005,3.019607843137255,2.9869281045751634,2.9869281045751634,2.977124183006536,2.9673202614379086,2.8986928104575163,2.8758169934640523,2.888888888888889,2.8594771241830066,2.84640522875817,2.872549019607843,2.849673202614379,2.8594771241830066,2.9052287581699345,2.915032679738562,2.895424836601307,2.9084967320261437,2.888888888888889,2.8333333333333335,2.816993464052288,2.80718954248366,2.8333333333333335,2.9248366013071894,3.0718954248366015,3.3333333333333335,3.5588235294117645,3.7973856209150325,3.9901960784313726,3.9084967320261437,3.611111111111111,3.3758169934640523,3.303921568627451,3.2091503267973858,3.130718954248366,3.0359477124183005,2.996732026143791,2.996732026143791,3.0620915032679736,3.1013071895424837,3.022875816993464,2.9248366013071894,2.888888888888889,2.934640522875817,2.9640522875816995,3.0065359477124183,3.0359477124183005,3.0392156862745097,2.9705882352941178,2.9444444444444446,2.977124183006536,3.0065359477124183,3.0359477124183005,3.0130718954248366,3.0,3.003267973856209,3.0130718954248366,3.0130718954248366,3.0555555555555554,3.0326797385620914,3.0359477124183005,3.042483660130719,3.019607843137255,3.049019607843137,3.0751633986928106,3.052287581699346,3.049019607843137,3.045751633986928,3.0588235294117645,3.0947712418300655,3.0915032679738563,3.0555555555555554,3.065359477124183,3.1241830065359477,3.130718954248366,3.1437908496732025,3.1601307189542482,3.130718954248366,3.1993464052287583,3.284313725490196,3.2941176470588234,3.2483660130718954,3.2973856209150325,3.284313725490196,3.2712418300653594,3.323529411764706,3.3594771241830066,3.3398692810457518,3.34640522875817,3.343137254901961,3.310457516339869,3.258169934640523,3.212418300653595,3.179738562091503,3.1470588235294117,3.1372549019607843,3.1405228758169934,3.15359477124183,3.15359477124183,3.111111111111111,3.0751633986928106,3.0915032679738563,3.084967320261438,3.088235294117647,3.1143790849673203,3.022875816993464,3.0294117647058822,3.1209150326797386,3.150326797385621,3.1241830065359477,3.0980392156862746,3.081699346405229,3.022875816993464,3.019607843137255,3.104575163398693,3.1013071895424837,3.049019607843137,3.042483660130719,3.1143790849673203,3.1209150326797386,3.0784313725490198,3.0751633986928106,3.045751633986928,3.065359477124183,3.045751633986928,3.0326797385620914,3.107843137254902,3.111111111111111,3.065359477124183,3.0980392156862746,3.0326797385620914,2.980392156862745,3.0326797385620914,3.052287581699346,3.0294117647058822,3.042483660130719,3.065359477124183,3.042483660130719,3.045751633986928,3.065359477124183,3.084967320261438,3.0620915032679736,3.0620915032679736,3.088235294117647,3.1176470588235294,3.1372549019607843,3.1176470588235294,3.0718954248366015,3.0294117647058822,3.0555555555555554,3.183006535947712,3.2450980392156863,3.2450980392156863,3.235294117647059,3.241830065359477,3.235294117647059,3.1633986928104574,3.1666666666666665,3.212418300653595,3.2058823529411766,3.133986928104575,3.0751633986928106,3.0784313725490198,3.084967320261438,3.081699346405229,3.0784313725490198,3.0130718954248366,2.980392156862745,3.0392156862745097,3.0784313725490198,3.0915032679738563,3.045751633986928,3.0,3.0163398692810457,3.0359477124183005,3.022875816993464,3.003267973856209,2.915032679738562,2.8986928104575163,2.9705882352941178,3.0163398692810457,3.1241830065359477,3.4019607843137254,3.7549019607843137,4.117647058823529,4.205882352941177,3.9836601307189543,3.7287581699346406,3.5130718954248366,3.3333333333333335,3.235294117647059,3.218954248366013,3.196078431372549,3.127450980392157,3.1209150326797386,3.0751633986928106,3.003267973856209,2.9934640522875817,3.0392156862745097,3.065359477124183,2.980392156862745,2.934640522875817,2.9313725490196076,2.9901960784313726,3.0098039215686274,3.022875816993464,3.052287581699346,3.042483660130719,2.996732026143791,2.996732026143791,3.0359477124183005,3.0130718954248366,2.980392156862745,2.996732026143791,3.0163398692810457,3.042483660130719,2.996732026143791,2.9607843137254903,3.0163398692810457,3.0751633986928106,3.026143790849673,3.0130718954248366,3.0718954248366015,3.127450980392157,3.0718954248366015,3.0555555555555554,3.088235294117647,3.111111111111111,3.0784313725490198,3.1143790849673203,3.1699346405228757,3.183006535947712,3.15359477124183,3.156862745098039,3.2254901960784315,3.2777777777777777,3.281045751633987,3.2058823529411766,3.1699346405228757,3.2450980392156863,3.261437908496732,3.3006535947712417,3.3856209150326797,3.3594771241830066,3.34640522875817,3.2973856209150325,3.287581699346405,3.316993464052288,3.287581699346405,3.1633986928104574,3.065359477124183,3.1176470588235294,3.215686274509804,3.212418300653595,3.1699346405228757,3.1699346405228757,3.1437908496732025,3.111111111111111,3.1176470588235294,3.1241830065359477,3.111111111111111,3.104575163398693,3.081699346405229,3.1143790849673203,3.107843137254902,3.1013071895424837,3.081699346405229,3.0751633986928106,3.0947712418300655,3.150326797385621,3.1470588235294117,3.130718954248366,3.130718954248366,3.1241830065359477,3.0588235294117645,3.0098039215686274,3.026143790849673,3.0555555555555554,3.104575163398693,3.156862745098039,3.173202614379085,3.15359477124183,3.130718954248366,3.088235294117647,3.0555555555555554,3.1013071895424837,3.111111111111111,3.0915032679738563,3.0947712418300655,3.1470588235294117,3.1372549019607843,3.0947712418300655,3.0718954248366015,3.0326797385620914,3.0163398692810457,3.026143790849673,3.065359477124183,3.0915032679738563,3.133986928104575,3.1470588235294117,3.15359477124183,3.196078431372549,3.1699346405228757,3.104575163398693,3.104575163398693,3.156862745098039,3.1601307189542482,3.150326797385621,3.1405228758169934,3.1372549019607843,3.19281045751634,3.241830065359477,3.212418300653595,3.1241830065359477,3.088235294117647,3.150326797385621,3.2287581699346406,3.2516339869281046,3.1862745098039214,3.1241830065359477,3.104575163398693,3.0784313725490198,3.0294117647058822,3.049019607843137,3.0163398692810457,3.0555555555555554,3.0751633986928106,2.9934640522875817,2.950980392156863,2.9640522875816995,3.0065359477124183,3.0326797385620914,3.0326797385620914,2.950980392156863,2.9084967320261437,2.9444444444444446,3.0065359477124183,3.0065359477124183,3.196078431372549,3.5359477124183005,3.8398692810457518,4.127450980392157,4.133986928104576,3.8823529411764706,3.5980392156862746,3.4248366013071894,3.215686274509804,3.0980392156862746,3.133986928104575,3.0980392156862746,3.0620915032679736,3.0392156862745097,2.9901960784313726,3.0098039215686274,3.026143790849673,3.022875816993464,2.977124183006536,2.980392156862745,2.996732026143791,2.9444444444444446,2.9215686274509802,2.954248366013072,2.954248366013072,2.9248366013071894,2.950980392156863,2.950980392156863,2.9084967320261437,2.9411764705882355,3.0326797385620914,3.0294117647058822,2.9705882352941178,2.954248366013072,2.947712418300654,2.9705882352941178,3.0,3.026143790849673,3.0392156862745097,3.019607843137255,2.9705882352941178,2.973856209150327,2.996732026143791,2.9836601307189543,3.0686274509803924,3.111111111111111,3.0947712418300655,3.081699346405229,3.045751633986928,3.0326797385620914,3.0326797385620914,3.019607843137255,3.088235294117647,3.1013071895424837,3.1143790849673203,3.1437908496732025,3.1209150326797386,3.130718954248366,3.1601307189542482,3.2254901960784315,3.241830065359477,3.264705882352941,3.3137254901960786,3.2549019607843137,3.212418300653595,3.1993464052287583,3.2222222222222223,3.19281045751634,3.127450980392157,3.0980392156862746,3.1176470588235294,3.1241830065359477,3.049019607843137,3.022875816993464,3.0326797385620914,3.0686274509803924,3.0751633986928106,3.042483660130719,3.0065359477124183,3.0163398692810457,3.042483660130719,3.042483660130719,3.052287581699346,3.022875816993464,3.019607843137255,3.0163398692810457,3.0588235294117645,3.049019607843137,3.0588235294117645,3.0555555555555554,2.996732026143791,2.9836601307189543,2.950980392156863,2.957516339869281,2.973856209150327,3.0163398692810457,3.045751633986928,3.0686274509803924,3.0588235294117645,3.0555555555555554,3.0588235294117645,3.107843137254902,3.026143790849673,2.957516339869281,3.022875816993464,3.0359477124183005,2.9215686274509802,2.9248366013071894,2.977124183006536,3.052287581699346,3.0686274509803924,3.0620915032679736,3.0163398692810457,2.9836601307189543,3.0686274509803924,3.065359477124183,3.0130718954248366,3.0098039215686274,3.0326797385620914,3.0947712418300655,3.052287581699346,3.0130718954248366,3.065359477124183,3.0784313725490198,3.0947712418300655,3.183006535947712,3.1993464052287583,3.189542483660131,3.183006535947712,3.1993464052287583,3.19281045751634,3.15359477124183,3.111111111111111,3.156862745098039,3.176470588235294,3.1601307189542482,3.1209150326797386,3.0686274509803924,3.0163398692810457,3.0555555555555554,3.0294117647058822,2.8627450980392157,2.934640522875817,3.0718954248366015,3.1209150326797386,3.0163398692810457,2.9705882352941178,3.0620915032679736,2.9640522875816995,2.8986928104575163,2.9934640522875817,3.049019607843137,2.9673202614379086,2.8758169934640523,2.8823529411764706,2.957516339869281,2.973856209150327,3.0718954248366015,3.326797385620915,3.6241830065359477,3.8986928104575163,4.111111111111111,4.065359477124183,3.7908496732026142,3.5163398692810457,3.323529411764706,3.189542483660131,3.1241830065359477,3.1372549019607843,3.1405228758169934,3.0915032679738563,3.065359477124183,3.0359477124183005,3.0130718954248366,3.0163398692810457,3.003267973856209,2.9215686274509802,2.9084967320261437,3.0163398692810457,2.973856209150327,2.8758169934640523,2.957516339869281,3.003267973856209,2.9705882352941178,3.003267973856209,3.0915032679738563,3.0784313725490198,2.9640522875816995,2.869281045751634,2.9215686274509802,2.957516339869281,2.9281045751633985,3.0065359477124183,3.0065359477124183,2.9705882352941178,2.950980392156863,2.947712418300654,2.9379084967320264,2.977124183006536,2.980392156862745,2.9934640522875817,3.0163398692810457,3.0098039215686274,3.003267973856209,3.0980392156862746,3.084967320261438,3.0392156862745097,3.130718954248366,3.133986928104575,3.1143790849673203,3.130718954248366,3.1209150326797386,3.1470588235294117,3.235294117647059,3.241830065359477,3.2091503267973858,3.173202614379085,3.1666666666666665,3.1666666666666665,3.2287581699346406,3.2745098039215685,3.235294117647059,3.179738562091503,3.215686274509804,3.19281045751634,3.107843137254902,3.130718954248366,3.1601307189542482,3.084967320261438,2.9836601307189543,3.045751633986928,3.1013071895424837,3.065359477124183,3.0555555555555554,3.1143790849673203,3.0620915032679736,2.9444444444444446,3.003267973856209,2.9444444444444446,3.003267973856209,3.052287581699346,3.003267973856209,3.0359477124183005,3.130718954248366,3.0555555555555554,3.049019607843137,3.0947712418300655,3.0359477124183005,2.9379084967320264,2.9869281045751634,3.0588235294117645,3.0065359477124183,2.9901960784313726,3.088235294117647,3.1013071895424837,3.0326797385620914,3.0065359477124183,2.9052287581699345,2.9019607843137254,3.0065359477124183,3.049019607843137,3.0294117647058822,3.045751633986928,3.042483660130719,2.977124183006536,3.0163398692810457,2.973856209150327,3.0130718954248366,3.088235294117647,3.0065359477124183,2.9705882352941178,2.977124183006536,2.9640522875816995,2.934640522875817,2.9901960784313726,2.9379084967320264,3.022875816993464,3.176470588235294,3.1633986928104574,3.1209150326797386,3.0294117647058822,3.0098039215686274,2.9869281045751634,3.0588235294117645,3.0686274509803924,3.111111111111111,3.1405228758169934,3.0915032679738563,3.1013071895424837,3.183006535947712,3.1993464052287583,3.19281045751634,3.2450980392156863,3.235294117647059,3.176470588235294,3.1013071895424837,3.065359477124183,3.107843137254902,3.130718954248366,3.045751633986928,2.996732026143791,3.1013071895424837,3.0588235294117645,2.869281045751634,2.9313725490196076,3.042483660130719,3.0065359477124183,2.9673202614379086,2.9411764705882355,2.9673202614379086,2.9248366013071894,2.8758169934640523,3.003267973856209,2.9215686274509802,2.8333333333333335,2.8823529411764706,2.9281045751633985,2.895424836601307,3.189542483660131,3.519607843137255,3.781045751633987,4.0588235294117645,4.062091503267974,3.892156862745098,3.630718954248366,3.3986928104575163,3.1993464052287583,3.1699346405228757,3.127450980392157,3.189542483660131,3.111111111111111,3.003267973856209,3.0065359477124183,3.0,2.918300653594771,2.947712418300654,2.9901960784313726,2.9640522875816995,3.019607843137255,2.915032679738562,2.787581699346405,2.911764705882353,3.0065359477124183,3.026143790849673,2.9607843137254903,2.892156862745098,2.9281045751633985,3.0,3.026143790849673,2.996732026143791,2.996732026143791,2.9640522875816995,2.888888888888889,2.9379084967320264,2.9901960784313726,2.9640522875816995,2.9705882352941178,2.9640522875816995,2.947712418300654,2.957516339869281,2.9934640522875817,3.0294117647058822,3.0163398692810457,3.003267973856209,3.019607843137255,3.019607843137255,2.973856209150327,3.019607843137255,3.0620915032679736,3.0588235294117645,3.0751633986928106,3.0718954248366015,3.0555555555555554,3.084967320261438,3.0915032679738563,3.130718954248366,3.2026143790849675,3.1862745098039214,3.2026143790849675,3.235294117647059,3.2058823529411766,3.189542483660131,3.130718954248366,3.133986928104575,3.130718954248366,3.088235294117647,3.052287581699346,3.022875816993464,3.0,3.0163398692810457,2.9901960784313726,2.9607843137254903,2.9705882352941178,2.9934640522875817,2.9411764705882355,2.9248366013071894,2.934640522875817,2.9313725490196076,2.915032679738562,2.8529411764705883,2.8529411764705883,2.8986928104575163,2.957516339869281,2.9379084967320264,2.8758169934640523,2.8758169934640523,2.8758169934640523,2.869281045751634,2.9836601307189543,2.9934640522875817,2.977124183006536,2.9313725490196076,2.9052287581699345,2.9215686274509802,2.8627450980392157,2.84640522875817,2.8856209150326797,2.8758169934640523,2.934640522875817,2.973856209150327,2.9444444444444446,2.9084967320261437,2.892156862745098,2.8986928104575163,2.872549019607843,2.849673202614379,2.892156862745098,2.9379084967320264,2.9379084967320264,2.9248366013071894,2.9084967320261437,2.8627450980392157,2.892156862745098,2.911764705882353,2.9248366013071894,2.996732026143791,2.947712418300654,2.866013071895425,2.8758169934640523,2.9052287581699345,2.9411764705882355,2.980392156862745,3.0130718954248366,2.980392156862745,2.9901960784313726,2.957516339869281,2.9019607843137254,3.0065359477124183,2.996732026143791,2.9673202614379086,3.026143790849673,3.1209150326797386,3.150326797385621,3.1209150326797386,3.0588235294117645,2.980392156862745,2.947712418300654,2.934640522875817,2.9052287581699345,2.9019607843137254,2.9215686274509802,2.9084967320261437,2.8366013071895426,2.803921568627451,2.8333333333333335,2.8758169934640523,2.872549019607843,2.872549019607843,2.84640522875817,2.8398692810457518,2.8856209150326797,2.843137254901961,2.7973856209150325,2.7222222222222223,2.715686274509804,2.7516339869281046,2.810457516339869,2.8790849673202614,3.042483660130719,3.3366013071895426,3.656862745098039,3.9084967320261437,3.934640522875817,3.7287581699346406,3.3856209150326797,3.1633986928104574,3.049019607843137,3.0,2.947712418300654,2.9607843137254903,2.980392156862745,2.947712418300654,2.9215686274509802,2.9084967320261437,2.895424836601307,2.8986928104575163,2.9607843137254903,2.869281045751634,2.787581699346405,2.8300653594771243,2.869281045751634,2.866013071895425,2.8594771241830066,2.8300653594771243,2.823529411764706,2.8986928104575163,2.9215686274509802,2.9052287581699345,2.9019607843137254,2.8529411764705883,2.8790849673202614,2.9215686274509802,2.8823529411764706,2.8790849673202614,2.892156862745098,2.895424836601307,2.892156862745098,2.9052287581699345,2.934640522875817,2.8986928104575163,2.8986928104575163,2.888888888888889,2.8758169934640523,2.915032679738562,2.947712418300654,2.9379084967320264,2.9248366013071894,2.9444444444444446,2.980392156862745,2.9869281045751634,2.973856209150327,3.0326797385620914,3.0294117647058822,2.980392156862745,3.049019607843137,3.130718954248366,3.1699346405228757,3.173202614379085,3.1405228758169934,3.0915032679738563,3.0915032679738563,3.1405228758169934,3.1699346405228757,3.1405228758169934,3.084967320261438,3.045751633986928,3.065359477124183,3.065359477124183,3.022875816993464,3.0163398692810457,3.0130718954248366,2.9673202614379086,2.9673202614379086,2.9607843137254903,3.003267973856209,3.0098039215686274,2.9901960784313726,2.973856209150327,2.980392156862745,2.980392156862745,2.9411764705882355,2.9379084967320264,2.934640522875817,2.915032679738562,2.9640522875816995,2.9379084967320264,2.9640522875816995,2.9607843137254903,2.9052287581699345,2.895424836601307,2.888888888888889,2.9215686274509802,2.934640522875817,2.9281045751633985,2.911764705882353,2.9281045751633985,2.947712418300654,2.9084967320261437,2.9052287581699345,2.9052287581699345,2.9281045751633985,2.9901960784313726,2.895424836601307,2.892156862745098,2.947712418300654,2.911764705882353,2.8594771241830066,2.8529411764705883,2.888888888888889,2.934640522875817,2.9215686274509802,2.8986928104575163,2.8594771241830066,2.8823529411764706,2.9934640522875817,3.019607843137255,2.915032679738562,2.892156862745098,2.9215686274509802,2.954248366013072,2.9836601307189543,2.9901960784313726,2.9379084967320264,2.9215686274509802,2.9019607843137254,2.973856209150327,3.0130718954248366,2.9934640522875817,3.0065359477124183,3.0555555555555554,3.0620915032679736,3.081699346405229,3.084967320261438,3.0620915032679736,3.081699346405229,3.0980392156862746,3.0098039215686274,2.9934640522875817,2.9673202614379086,2.9084967320261437,2.8856209150326797,2.9313725490196076,2.9281045751633985,2.9673202614379086,2.934640522875817,2.9281045751633985,2.9248366013071894,2.84640522875817,2.84640522875817,2.8366013071895426,2.8627450980392157,2.950980392156863,2.918300653594771,2.8366013071895426,2.7908496732026142,2.7679738562091503,2.8562091503267975,2.9869281045751634,3.19281045751634,3.418300653594771,3.7320261437908497,3.9869281045751634,4.016339869281046,3.764705882352941,3.4869281045751634,3.310457516339869,3.2091503267973858,3.0980392156862746,3.045751633986928,3.0294117647058822,2.9411764705882355,2.8986928104575163,2.9411764705882355,2.888888888888889,2.888888888888889,2.849673202614379,2.888888888888889,2.911764705882353,2.895424836601307,2.915032679738562,2.8594771241830066,2.866013071895425,2.8986928104575163,2.869281045751634,2.892156862745098,2.9411764705882355,2.9215686274509802,2.8758169934640523,2.849673202614379,2.869281045751634,2.892156862745098,2.8758169934640523,2.869281045751634,2.895424836601307,2.911764705882353,2.9084967320261437,2.918300653594771,2.9281045751633985,2.915032679738562,2.9215686274509802,2.9248366013071894,2.9379084967320264,2.934640522875817,2.9379084967320264,2.9673202614379086,2.9705882352941178,2.934640522875817,2.947712418300654,2.9411764705882355,2.9607843137254903,2.9901960784313726,3.0130718954248366,3.003267973856209,3.0065359477124183,3.026143790849673,3.065359477124183,3.133986928104575,3.1633986928104574,3.1437908496732025,3.1143790849673203,3.130718954248366,3.1372549019607843,3.1013071895424837,3.1013071895424837,3.0947712418300655,3.042483660130719,3.022875816993464,3.0130718954248366,3.0,2.973856209150327,2.934640522875817,2.911764705882353,2.895424836601307,2.911764705882353,2.9444444444444446,2.9313725490196076,2.8856209150326797,2.8856209150326797,2.911764705882353,2.918300653594771,2.8823529411764706,2.8529411764705883,2.869281045751634,2.895424836601307,2.915032679738562,2.911764705882353,2.8986928104575163,2.8758169934640523,2.888888888888889,2.888888888888889,2.8790849673202614,2.8562091503267975,2.820261437908497,2.8398692810457518,2.9281045751633985,2.9379084967320264,2.9052287581699345,2.843137254901961,2.8562091503267975,2.895424836601307,2.9019607843137254,2.8986928104575163,2.8823529411764706,2.888888888888889,2.8856209150326797,2.8986928104575163,2.9019607843137254,2.888888888888889,2.9052287581699345,2.9281045751633985,2.8758169934640523,2.8758169934640523,2.8758169934640523,2.84640522875817,2.8529411764705883,2.866013071895425,2.8627450980392157,2.8562091503267975,2.9052287581699345,2.9215686274509802,2.8823529411764706,2.9052287581699345,2.9411764705882355,2.9640522875816995,2.9607843137254903,2.947712418300654,2.957516339869281,2.973856209150327,2.996732026143791,3.0326797385620914,3.052287581699346,3.0359477124183005,3.0163398692810457,3.0326797385620914,3.0130718954248366,3.0130718954248366,3.0163398692810457,2.9607843137254903,2.915032679738562,2.895424836601307,2.8986928104575163,2.892156862745098,2.895424836601307,2.8790849673202614,2.843137254901961,2.843137254901961,2.888888888888889,2.872549019607843,2.823529411764706,2.787581699346405,2.810457516339869,2.816993464052288,2.8333333333333335,2.8562091503267975,2.781045751633987,2.689542483660131,2.6633986928104574,2.712418300653595,2.810457516339869,2.9607843137254903,3.173202614379085,3.4673202614379086,3.869281045751634,4.133986928104576,3.9836601307189543,3.633986928104575,3.3986928104575163,3.258169934640523,3.1176470588235294,3.0098039215686274,2.934640522875817,2.9444444444444446,2.911764705882353,2.8627450980392157,2.8300653594771243,2.872549019607843,2.8823529411764706,2.8333333333333335,2.8562091503267975,2.8758169934640523,2.872549019607843,2.8529411764705883,2.8594771241830066,2.8137254901960786,2.8562091503267975,2.9313725490196076,2.9607843137254903,2.9052287581699345,2.8529411764705883,2.810457516339869,2.816993464052288,2.866013071895425,2.895424836601307,2.8627450980392157,2.872549019607843,2.9019607843137254,2.8986928104575163,2.866013071895425,2.888888888888889,2.8986928104575163,2.8856209150326797,2.895424836601307,2.911764705882353,2.918300653594771,2.9248366013071894,2.9281045751633985,2.9248366013071894,2.9411764705882355,2.950980392156863,2.954248366013072,3.0,3.0065359477124183,3.0392156862745097,3.0392156862745097,3.0392156862745097,3.0751633986928106,3.127450980392157,3.0980392156862746,3.0947712418300655,3.1209150326797386,3.1405228758169934,3.1405228758169934,3.1470588235294117,3.1209150326797386,3.133986928104575,3.127450980392157,3.1143790849673203,3.084967320261438,3.0392156862745097,3.0555555555555554,3.0718954248366015,3.0294117647058822,2.9869281045751634,3.0130718954248366,3.003267973856209,2.9444444444444446,2.9607843137254903,2.977124183006536,2.977124183006536,2.9411764705882355,2.950980392156863,2.9901960784313726,3.0359477124183005,3.003267973856209,2.954248366013072,2.9607843137254903,2.9705882352941178,2.9607843137254903,2.9705882352941178,2.9836601307189543,2.977124183006536,2.977124183006536,2.977124183006536,2.947712418300654,2.9313725490196076,2.9901960784313726,3.0,2.9836601307189543,2.980392156862745,2.996732026143791,2.9705882352941178,2.9411764705882355,2.954248366013072,2.9901960784313726,2.950980392156863,2.934640522875817,2.977124183006536,2.9869281045751634,3.0065359477124183,3.0098039215686274,3.0065359477124183,3.019607843137255,2.9869281045751634,2.9640522875816995,2.973856209150327,2.977124183006536,2.9901960784313726,2.9901960784313726,3.003267973856209,3.022875816993464,3.0588235294117645,3.111111111111111,3.065359477124183,3.0326797385620914,3.026143790849673,3.0098039215686274,3.0065359477124183,3.0294117647058822,3.088235294117647,3.107843137254902,3.1241830065359477,3.1633986928104574,3.1666666666666665,3.133986928104575,3.179738562091503,3.173202614379085,3.1405228758169934,3.1470588235294117,3.111111111111111,3.088235294117647,3.111111111111111,3.0751633986928106,2.9869281045751634,2.9313725490196076,2.9313725490196076,2.9869281045751634,3.052287581699346,3.049019607843137,3.0130718954248366,3.0,2.954248366013072,2.9673202614379086,3.003267973856209,2.977124183006536,2.9248366013071894,2.895424836601307,2.843137254901961,2.8562091503267975,2.918300653594771,2.9705882352941178,3.0915032679738563,3.3366013071895426,3.6666666666666665,3.9901960784313726,4.104575163398692,3.8790849673202614,3.5915032679738563,3.3529411764705883,3.2549019607843137,3.19281045751634,3.081699346405229,3.0326797385620914,3.049019607843137,3.022875816993464,2.9836601307189543,2.9607843137254903,2.9673202614379086,3.0098039215686274,3.0392156862745097,2.9640522875816995,2.9215686274509802,2.9379084967320264,2.9379084967320264,2.9444444444444446,2.9313725490196076,2.918300653594771,2.947712418300654,2.9281045751633985,2.9411764705882355,3.0,3.0326797385620914,2.980392156862745,2.947712418300654,2.954248366013072,2.954248366013072,2.9673202614379086,2.973856209150327,2.9836601307189543,2.9673202614379086,2.980392156862745,2.996732026143791,2.9673202614379086,2.9901960784313726,3.003267973856209,2.9607843137254903,3.0,3.019607843137255,3.045751633986928,3.0359477124183005,3.019607843137255,3.049019607843137,3.0588235294117645,3.0915032679738563,3.156862745098039,3.1241830065359477,3.107843137254902,3.1176470588235294,3.1601307189542482,3.196078431372549,3.189542483660131,3.215686274509804,3.2254901960784315,3.2483660130718954,3.241830065359477,3.235294117647059,3.2058823529411766,3.19281045751634,3.176470588235294,3.176470588235294,3.150326797385621,3.1372549019607843,3.1209150326797386,3.084967320261438,3.0620915032679736,3.0163398692810457,2.9901960784313726,3.0098039215686274,3.0130718954248366,3.003267973856209,2.9869281045751634,2.9673202614379086,3.0130718954248366,3.026143790849673,3.003267973856209,2.954248366013072,2.9673202614379086,2.996732026143791,2.9869281045751634,2.9901960784313726,2.980392156862745,2.954248366013072,2.9640522875816995,3.0,2.9869281045751634,3.0,2.996732026143791,3.0,3.0359477124183005,3.019607843137255,2.996732026143791,2.8986928104575163,2.8823529411764706,2.9673202614379086,2.980392156862745,2.9281045751633985,2.9444444444444446,2.9869281045751634,2.973856209150327,2.973856209150327,2.9607843137254903,2.973856209150327,2.954248366013072,2.9673202614379086,2.9607843137254903,2.950980392156863,2.947712418300654,2.9607843137254903,2.977124183006536,2.9869281045751634,2.996732026143791,3.022875816993464,2.9836601307189543,3.003267973856209,3.0392156862745097,3.052287581699346,3.052287581699346,3.0718954248366015,3.0718954248366015,3.0588235294117645,3.0718954248366015,3.0588235294117645,3.0915032679738563,3.0947712418300655,3.1143790849673203,3.133986928104575,3.1405228758169934,3.150326797385621,3.173202614379085,3.127450980392157,3.0947712418300655,3.0620915032679736,3.0163398692810457,2.9869281045751634,2.9934640522875817,3.0098039215686274,2.9901960784313726,2.954248366013072,2.957516339869281,2.9607843137254903,2.9248366013071894,2.9411764705882355,2.9444444444444446,2.934640522875817,2.911764705882353,2.915032679738562,2.9084967320261437,2.8823529411764706,2.8333333333333335,2.7549019607843137,2.761437908496732,2.80718954248366,2.934640522875817,3.1143790849673203,3.3758169934640523,3.6699346405228757,3.9869281045751634,4.084967320261438,3.9052287581699345,3.633986928104575,3.4019607843137254,3.235294117647059,3.130718954248366,3.052287581699346,3.042483660130719,3.0686274509803924,3.022875816993464,2.996732026143791,2.973856209150327,2.9281045751633985,2.911764705882353,2.9411764705882355,2.973856209150327,3.0130718954248366,2.9673202614379086,2.9084967320261437,2.9215686274509802,2.915032679738562,2.947712418300654,2.8986928104575163,2.869281045751634,2.8758169934640523,2.9052287581699345,2.9052287581699345,2.911764705882353,2.954248366013072,2.9836601307189543,2.9640522875816995,2.9607843137254903,2.9673202614379086,2.9313725490196076,2.918300653594771,2.9607843137254903,2.977124183006536,2.950980392156863,2.9379084967320264,2.9705882352941178,3.0294117647058822,3.0294117647058822,3.0098039215686274,2.9640522875816995,3.0130718954248366,3.0130718954248366,3.003267973856209,2.9869281045751634,3.0620915032679736,3.081699346405229,3.088235294117647,3.0915032679738563,3.0947712418300655,3.1143790849673203,3.156862745098039,3.183006535947712,3.189542483660131,3.189542483660131,3.1699346405228757,3.1699346405228757,3.2026143790849675,3.1666666666666665,3.133986928104575,3.1601307189542482,3.104575163398693,3.022875816993464,3.026143790849673,3.052287581699346,3.042483660130719,3.019607843137255,2.9934640522875817,3.019607843137255,3.019607843137255,3.0326797385620914,3.042483660130719,3.003267973856209,2.973856209150327,2.954248366013072,2.9607843137254903,2.9836601307189543,2.9705882352941178,